PE FL                   SPECTRUM    ASCII       PEDS        1.60        
  -1
DMPP_1~2
26/02/27
19:55:40.00
26/02/27
19:55:40.00


524.500000
1









LS55
335.00
5.00
5.00
SCAN
1
16
100
100
0
50
0
1
0
1
7
ON
412 335 
1 0 0
#HDR
-1
-1
#GR
NM

0.00002384185791015625
0.0
370.000000
0.500000
310
8
14.213304
-0.006814
#DATA
370.000000	0.000000  
370.500000	0.000000  
371.000000	0.000000  
371.500000	-0.005209 
372.000000	-0.006814 
372.500000	-0.003372 
373.000000	0.003912  
373.500000	0.013835  
374.000000	0.020287  
374.500000	0.030339  
375.000000	0.044201  
375.500000	0.055377  
376.000000	0.053447  
376.500000	0.054234  
377.000000	0.062971  
377.500000	0.073628  
378.000000	0.081233  
378.500000	0.087532  
379.000000	0.103003  
379.500000	0.128745  
380.000000	0.154985  
380.500000	0.165858  
381.000000	0.179853  
381.500000	0.198033  
382.000000	0.210173  
382.500000	0.205907  
383.000000	0.201551  
383.500000	0.212631  
384.000000	0.251152  
384.500000	0.293735  
385.000000	0.320061  
385.500000	0.352175  
386.000000	0.395716  
386.500000	0.445601  
387.000000	0.471131  
387.500000	0.482942  
388.000000	0.506472  
388.500000	0.536696  
389.000000	0.575038  
389.500000	0.657019  
390.000000	0.723342  
390.500000	0.820820  
391.000000	0.969849  
391.500000	1.135743  
392.000000	1.313733  
392.500000	1.487292  
393.000000	1.650793  
393.500000	1.817099  
394.000000	2.050522  
394.500000	2.237841  
395.000000	2.391171  
395.500000	2.554538  
396.000000	2.729273  
396.500000	2.902377  
397.000000	3.046287  
397.500000	3.138560  
398.000000	3.212756  
398.500000	3.375380  
399.000000	3.527473  
399.500000	3.653884  
400.000000	3.783065  
400.500000	3.963177  
401.000000	4.215296  
401.500000	4.502189  
402.000000	4.760178  
402.500000	5.032475  
403.000000	5.376284  
403.500000	5.729973  
404.000000	6.061879  
404.500000	6.310843  
405.000000	6.559310  
405.500000	6.810209  
406.000000	7.070343  
406.500000	7.273936  
407.000000	7.388844  
407.500000	7.530676  
408.000000	7.708795  
408.500000	7.915988  
409.000000	8.054839  
409.500000	8.191981  
410.000000	8.362036  
410.500000	8.629653  
411.000000	8.956026  
411.500000	9.190158  
412.000000	9.372396  
412.500000	9.589540  
413.000000	9.833501  
413.500000	9.973124  
414.000000	10.057282 
414.500000	10.108605 
415.000000	10.215945 
415.500000	10.431905 
416.000000	10.637465 
416.500000	10.793714 
417.000000	10.950382 
417.500000	11.130082 
418.000000	11.259877 
418.500000	11.316986 
419.000000	11.308312 
419.500000	11.312623 
420.000000	11.413251 
420.500000	11.599173 
421.000000	11.849656 
421.500000	12.100671 
422.000000	12.377782 
422.500000	12.621056 
423.000000	12.784406 
423.500000	12.883382 
424.000000	12.960835 
424.500000	12.988998 
425.000000	13.014385 
425.500000	13.116774 
426.000000	13.111099 
426.500000	13.062080 
427.000000	12.976447 
427.500000	12.877686 
428.000000	12.780607 
428.500000	12.745290 
429.000000	12.740507 
429.500000	12.804766 
430.000000	13.016035 
430.500000	13.200090 
431.000000	13.363342 
431.500000	13.423044 
432.000000	13.397439 
432.500000	13.302398 
433.000000	13.201770 
433.500000	13.070101 
434.000000	12.936709 
434.500000	12.893144 
435.000000	12.875586 
435.500000	12.876768 
436.000000	12.819103 
436.500000	12.704503 
437.000000	12.591044 
437.500000	12.476480 
438.000000	12.384580 
438.500000	12.345910 
439.000000	12.370137 
439.500000	12.500735 
440.000000	12.768403 
440.500000	13.089910 
441.000000	13.383138 
441.500000	13.660984 
442.000000	13.931622 
442.500000	14.112558 
443.000000	14.213304 
443.500000	14.150589 
444.000000	14.004126 
444.500000	13.852875 
445.000000	13.659921 
445.500000	13.422649 
446.000000	13.173193 
446.500000	13.019170 
447.000000	12.924967 
447.500000	12.951867 
448.000000	12.924771 
448.500000	12.889158 
449.000000	12.914539 
449.500000	12.928960 
450.000000	12.941785 
450.500000	12.910067 
451.000000	12.907216 
451.500000	12.913217 
452.000000	12.990198 
452.500000	13.013974 
453.000000	13.005590 
453.500000	12.993152 
454.000000	12.953816 
454.500000	12.912900 
455.000000	12.825066 
455.500000	12.729005 
456.000000	12.632860 
456.500000	12.557872 
457.000000	12.473043 
457.500000	12.385627 
458.000000	12.319103 
458.500000	12.284544 
459.000000	12.297071 
459.500000	12.298074 
460.000000	12.315472 
460.500000	12.344732 
461.000000	12.416443 
461.500000	12.469089 
462.000000	12.461790 
462.500000	12.345229 
463.000000	12.189403 
463.500000	12.009901 
464.000000	11.836620 
464.500000	11.652778 
465.000000	11.439968 
465.500000	11.310366 
466.000000	11.252745 
466.500000	11.283278 
467.000000	11.305491 
467.500000	11.316046 
468.000000	11.249739 
468.500000	11.202818 
469.000000	11.141604 
469.500000	10.972427 
470.000000	10.765456 
470.500000	10.573732 
471.000000	10.499356 
471.500000	10.486794 
472.000000	10.517134 
472.500000	10.502813 
473.000000	10.514848 
473.500000	10.530131 
474.000000	10.443050 
474.500000	10.233156 
475.000000	9.909176  
475.500000	9.524497  
476.000000	9.142915  
476.500000	8.849811  
477.000000	8.604559  
477.500000	8.409963  
478.000000	8.320716  
478.500000	8.280081  
479.000000	8.306109  
479.500000	8.353745  
480.000000	8.354912  
480.500000	8.236799  
481.000000	8.166006  
481.500000	8.068584  
482.000000	7.865124  
482.500000	7.596791  
483.000000	7.272996  
483.500000	6.954421  
484.000000	6.673162  
484.500000	6.395470  
485.000000	6.033115  
485.500000	5.800400  
486.000000	5.680686  
486.500000	5.557142  
487.000000	5.418974  
487.500000	5.279319  
488.000000	5.117947  
488.500000	4.941624  
489.000000	4.779355  
489.500000	4.575002  
490.000000	4.414752  
490.500000	4.310406  
491.000000	4.214809  
491.500000	4.102706  
492.000000	4.016361  
492.500000	3.928517  
493.000000	3.825289  
493.500000	3.708853  
494.000000	3.582716  
494.500000	3.460732  
495.000000	3.325542  
495.500000	3.209861  
496.000000	3.109072  
496.500000	3.020955  
497.000000	2.958901  
497.500000	2.923089  
498.000000	2.894315  
498.500000	2.896687  
499.000000	2.896468  
499.500000	2.812667  
500.000000	2.684977  
500.500000	2.544386  
501.000000	2.354635  
501.500000	2.119556  
502.000000	1.915377  
502.500000	1.749988  
503.000000	1.655819  
503.500000	1.598322  
504.000000	1.527743  
504.500000	1.447270  
505.000000	1.373759  
505.500000	1.284113  
506.000000	1.149193  
506.500000	1.003196  
507.000000	0.858139  
507.500000	0.759094  
508.000000	0.662747  
508.500000	0.600120  
509.000000	0.590986  
509.500000	0.627819  
510.000000	0.673581  
510.500000	0.703105  
511.000000	0.710201  
511.500000	0.714749  
512.000000	0.714358  
512.500000	0.657424  
513.000000	0.571735  
513.500000	0.502356  
514.000000	0.443082  
514.500000	0.388303  
515.000000	0.335115  
515.500000	0.291297  
516.000000	0.272277  
516.500000	0.289055  
517.000000	0.299576  
517.500000	0.291619  
518.000000	0.292443  
518.500000	0.284656  
519.000000	0.275702  
519.500000	0.248601  
520.000000	0.209260  
520.500000	0.171229  
521.000000	0.146242  
521.500000	0.122932  
522.000000	0.090781  
522.500000	0.076792  
523.000000	0.055985  
523.500000	0.040094  
524.000000	0.032253  
524.500000	0.033076  

