PE FL                   SPECTRUM    ASCII       PEDS        1.60        
  -1
DMPPME~2
26/09/29
13:26:55.00
26/09/29
13:26:55.00


595.500000
1









LS55
335.00
10.00
10.00
SCAN
1
16
100
100
0
25
0
1
0
1
7
ON
430 390 
1 0 0
#HDR
-1
-1
#GR
NM

0.00002384185791015625
0.0
370.000000
0.500000
452
8
35.437610
1.586395
#DATA
370.000000	1.717000  
370.500000	1.981869  
371.000000	2.212936  
371.500000	2.405686  
372.000000	2.550052  
372.500000	2.652469  
373.000000	2.714363  
373.500000	2.747494  
374.000000	2.761879  
374.500000	2.780697  
375.000000	2.812743  
375.500000	2.855118  
376.000000	2.914294  
376.500000	2.992365  
377.000000	3.096186  
377.500000	3.229838  
378.000000	3.391304  
378.500000	3.569212  
379.000000	3.759027  
379.500000	3.961359  
380.000000	4.185205  
380.500000	4.421999  
381.000000	4.670459  
381.500000	4.921467  
382.000000	5.178074  
382.500000	5.437613  
383.000000	5.680918  
383.500000	5.909610  
384.000000	6.116225  
384.500000	6.324420  
385.000000	6.541818  
385.500000	6.778132  
386.000000	7.028083  
386.500000	7.296305  
387.000000	7.593185  
387.500000	7.904227  
388.000000	8.224417  
388.500000	8.528542  
389.000000	8.819636  
389.500000	9.097634  
390.000000	9.363174  
390.500000	9.612078  
391.000000	9.837922  
391.500000	10.073994 
392.000000	10.325418 
392.500000	10.605741 
393.000000	10.908583 
393.500000	11.245197 
394.000000	11.617362 
394.500000	12.015016 
395.000000	12.418191 
395.500000	12.805961 
396.000000	13.189560 
396.500000	13.564155 
397.000000	13.936929 
397.500000	14.314287 
398.000000	14.708683 
398.500000	15.121841 
399.000000	15.552640 
399.500000	15.987187 
400.000000	16.411447 
400.500000	16.829025 
401.000000	17.233102 
401.500000	17.618329 
402.000000	17.997104 
402.500000	18.378739 
403.000000	18.771836 
403.500000	19.186457 
404.000000	19.610184 
404.500000	20.033980 
405.000000	20.459103 
405.500000	20.882465 
406.000000	21.288114 
406.500000	21.696916 
407.000000	22.102762 
407.500000	22.496682 
408.000000	22.893140 
408.500000	23.291848 
409.000000	23.675125 
409.500000	24.047906 
410.000000	24.415943 
410.500000	24.766167 
411.000000	25.113409 
411.500000	25.469027 
412.000000	25.824484 
412.500000	26.184288 
413.000000	26.545498 
413.500000	26.906837 
414.000000	27.279983 
414.500000	27.664150 
415.000000	28.048987 
415.500000	28.434668 
416.000000	28.819954 
416.500000	29.204923 
417.000000	29.584002 
417.500000	29.931480 
418.000000	30.249882 
418.500000	30.544423 
419.000000	30.817501 
419.500000	31.069599 
420.000000	31.296048 
420.500000	31.487064 
421.000000	31.676661 
421.500000	31.879771 
422.000000	32.088408 
422.500000	32.310987 
423.000000	32.546641 
423.500000	32.780750 
424.000000	33.004273 
424.500000	33.212572 
425.000000	33.377212 
425.500000	33.505742 
426.000000	33.606085 
426.500000	33.695565 
427.000000	33.785407 
427.500000	33.872613 
428.000000	33.961679 
428.500000	34.080352 
429.000000	34.213555 
429.500000	34.343626 
430.000000	34.465712 
430.500000	34.573918 
431.000000	34.673459 
431.500000	34.779264 
432.000000	34.849087 
432.500000	34.874903 
433.000000	34.896921 
433.500000	34.921944 
434.000000	34.949225 
434.500000	34.972323 
435.000000	34.992285 
435.500000	35.010282 
436.000000	35.057626 
436.500000	35.093177 
437.000000	35.100686 
437.500000	35.102502 
438.000000	35.111986 
438.500000	35.137498 
439.000000	35.168814 
439.500000	35.195530 
440.000000	35.202915 
440.500000	35.221932 
441.000000	35.244125 
441.500000	35.267891 
442.000000	35.295576 
442.500000	35.323908 
443.000000	35.350116 
443.500000	35.393555 
444.000000	35.430433 
444.500000	35.437610 
445.000000	35.430749 
445.500000	35.421845 
446.000000	35.411020 
446.500000	35.402895 
447.000000	35.397355 
447.500000	35.376264 
448.000000	35.358800 
448.500000	35.344170 
449.000000	35.324295 
449.500000	35.310850 
450.000000	35.305564 
450.500000	35.296535 
451.000000	35.281514 
451.500000	35.267754 
452.000000	35.232453 
452.500000	35.170343 
453.000000	35.078723 
453.500000	34.962197 
454.000000	34.843913 
454.500000	34.730506 
455.000000	34.628448 
455.500000	34.523648 
456.000000	34.439921 
456.500000	34.384831 
457.000000	34.339939 
457.500000	34.282544 
458.000000	34.208319 
458.500000	34.131870 
459.000000	34.025873 
459.500000	33.906183 
460.000000	33.749293 
460.500000	33.554529 
461.000000	33.342419 
461.500000	33.140502 
462.000000	32.950708 
462.500000	32.768399 
463.000000	32.615611 
463.500000	32.472822 
464.000000	32.360471 
464.500000	32.244300 
465.000000	32.102091 
465.500000	31.939167 
466.000000	31.755686 
466.500000	31.565192 
467.000000	31.370584 
467.500000	31.182811 
468.000000	30.994354 
468.500000	30.811874 
469.000000	30.619115 
469.500000	30.406719 
470.000000	30.182060 
470.500000	29.923317 
471.000000	29.650486 
471.500000	29.381630 
472.000000	29.128471 
472.500000	28.910226 
473.000000	28.717323 
473.500000	28.524118 
474.000000	28.325198 
474.500000	28.131552 
475.000000	27.914860 
475.500000	27.670802 
476.000000	27.407012 
476.500000	27.140105 
477.000000	26.888624 
477.500000	26.649960 
478.000000	26.404650 
478.500000	26.148750 
479.000000	25.886612 
479.500000	25.630156 
480.000000	25.371379 
480.500000	25.110359 
481.000000	24.851464 
481.500000	24.613486 
482.000000	24.405231 
482.500000	24.212755 
483.000000	24.025869 
483.500000	23.840348 
484.000000	23.670178 
484.500000	23.486487 
485.000000	23.279473 
485.500000	23.036872 
486.000000	22.773448 
486.500000	22.501654 
487.000000	22.213093 
487.500000	21.912759 
488.000000	21.608816 
488.500000	21.321994 
489.000000	21.035470 
489.500000	20.749669 
490.000000	20.467000 
490.500000	20.192674 
491.000000	19.933583 
491.500000	19.679513 
492.000000	19.435542 
492.500000	19.200962 
493.000000	18.982372 
493.500000	18.766463 
494.000000	18.532241 
494.500000	18.288006 
495.000000	18.028040 
495.500000	17.754276 
496.000000	17.477814 
496.500000	17.202213 
497.000000	16.924395 
497.500000	16.660594 
498.000000	16.420277 
498.500000	16.185551 
499.000000	15.966108 
499.500000	15.757439 
500.000000	15.551836 
500.500000	15.360174 
501.000000	15.169941 
501.500000	14.956517 
502.000000	14.722554 
502.500000	14.482157 
503.000000	14.224208 
503.500000	13.951774 
504.000000	13.684334 
504.500000	13.412303 
505.000000	13.156419 
505.500000	12.917919 
506.000000	12.693680 
506.500000	12.483359 
507.000000	12.297988 
507.500000	12.120430 
508.000000	11.939551 
508.500000	11.763441 
509.000000	11.584924 
509.500000	11.400168 
510.000000	11.203189 
510.500000	11.005653 
511.000000	10.813606 
511.500000	10.638309 
512.000000	10.475774 
512.500000	10.326996 
513.000000	10.199278 
513.500000	10.088207 
514.000000	9.987367  
514.500000	9.886166  
515.000000	9.786219  
515.500000	9.679538  
516.000000	9.564206  
516.500000	9.437406  
517.000000	9.299865  
517.500000	9.149557  
518.000000	8.994535  
518.500000	8.835775  
519.000000	8.667221  
519.500000	8.504871  
520.000000	8.357848  
520.500000	8.220145  
521.000000	8.094620  
521.500000	7.972650  
522.000000	7.849286  
522.500000	7.731216  
523.000000	7.617100  
523.500000	7.487544  
524.000000	7.347792  
524.500000	7.209117  
525.000000	7.071080  
525.500000	6.943551  
526.000000	6.824782  
526.500000	6.713397  
527.000000	6.617561  
527.500000	6.542177  
528.000000	6.462924  
528.500000	6.376339  
529.000000	6.297973  
529.500000	6.222431  
530.000000	6.146514  
530.500000	6.071701  
531.000000	5.999147  
531.500000	5.935868  
532.000000	5.872202  
532.500000	5.795079  
533.000000	5.701884  
533.500000	5.600499  
534.000000	5.496209  
534.500000	5.384230  
535.000000	5.262368  
535.500000	5.141609  
536.000000	5.041819  
536.500000	4.955263  
537.000000	4.865050  
537.500000	4.765956  
538.000000	4.664516  
538.500000	4.568457  
539.000000	4.484361  
539.500000	4.399244  
540.000000	4.313997  
540.500000	4.242013  
541.000000	4.180857  
541.500000	4.125036  
542.000000	4.067956  
542.500000	4.001055  
543.000000	3.931907  
543.500000	3.876550  
544.000000	3.823827  
544.500000	3.769750  
545.000000	3.713759  
545.500000	3.657115  
546.000000	3.598592  
546.500000	3.540913  
547.000000	3.473314  
547.500000	3.400972  
548.000000	3.339427  
548.500000	3.289412  
549.000000	3.251635  
549.500000	3.223984  
550.000000	3.200012  
550.500000	3.178104  
551.000000	3.167144  
551.500000	3.154446  
552.000000	3.140259  
552.500000	3.130416  
553.000000	3.121925  
553.500000	3.115553  
554.000000	3.109830  
554.500000	3.099450  
555.000000	3.081469  
555.500000	3.061954  
556.000000	3.042479  
556.500000	3.021816  
557.000000	3.005302  
557.500000	2.993454  
558.000000	2.987912  
558.500000	2.986148  
559.000000	2.984558  
559.500000	2.979354  
560.000000	2.967840  
560.500000	2.955379  
561.000000	2.939148  
561.500000	2.918595  
562.000000	2.897425  
562.500000	2.880152  
563.000000	2.867489  
563.500000	2.859145  
564.000000	2.850471  
564.500000	2.839001  
565.000000	2.830370  
565.500000	2.821161  
566.000000	2.807669  
566.500000	2.791678  
567.000000	2.777668  
567.500000	2.769405  
568.000000	2.764489  
568.500000	2.754868  
569.000000	2.741986  
569.500000	2.731791  
570.000000	2.725745  
570.500000	2.717081  
571.000000	2.704546  
571.500000	2.691523  
572.000000	2.682036  
572.500000	2.674562  
573.000000	2.662018  
573.500000	2.643389  
574.000000	2.620850  
574.500000	2.596299  
575.000000	2.566624  
575.500000	2.532631  
576.000000	2.494001  
576.500000	2.454458  
577.000000	2.416833  
577.500000	2.379975  
578.000000	2.345636  
578.500000	2.316432  
579.000000	2.291728  
579.500000	2.271281  
580.000000	2.253308  
580.500000	2.236489  
581.000000	2.216477  
581.500000	2.196324  
582.000000	2.174818  
582.500000	2.153631  
583.000000	2.136452  
583.500000	2.118399  
584.000000	2.096723  
584.500000	2.072810  
585.000000	2.047147  
585.500000	2.016880  
586.000000	1.989742  
586.500000	1.963203  
587.000000	1.937628  
587.500000	1.917996  
588.000000	1.902860  
588.500000	1.885125  
589.000000	1.863509  
589.500000	1.838753  
590.000000	1.803761  
590.500000	1.769875  
591.000000	1.734275  
591.500000	1.702623  
592.000000	1.674373  
592.500000	1.654010  
593.000000	1.636937  
593.500000	1.624702  
594.000000	1.618561  
594.500000	1.607901  
595.000000	1.598197  
595.500000	1.586395  

