PE FL                   SPECTRUM    ASCII       PEDS        1.60        
  -1
DMPP_1~1
26/02/27
19:42:12.00
26/02/27
19:46:09.00


390.000000
1









LS55
430.00
5.00
5.00
SCAN
1
16
100
100
0
50
0
0
0
1
7
ON
430 380 
1 0 0
#HDR
-1
-1
#GR
NM

0.00002384185791015625
0.0
200.000000
0.500000
381
8
13.294289
-0.079233
#DATA
200.000000	0.000000  
200.500000	0.000000  
201.000000	0.000000  
201.500000	0.000000  
202.000000	0.000000  
202.500000	0.000000  
203.000000	0.000000  
203.500000	0.000000  
204.000000	0.000000  
204.500000	0.000000  
205.000000	0.000000  
205.500000	0.000000  
206.000000	0.000000  
206.500000	0.000000  
207.000000	0.000000  
207.500000	0.000000  
208.000000	0.000000  
208.500000	0.000000  
209.000000	0.000000  
209.500000	0.000000  
210.000000	0.000000  
210.500000	0.000000  
211.000000	0.000000  
211.500000	0.000000  
212.000000	0.000000  
212.500000	0.000000  
213.000000	0.000000  
213.500000	0.000000  
214.000000	0.000000  
214.500000	0.000000  
215.000000	0.000000  
215.500000	0.000000  
216.000000	0.000000  
216.500000	0.000000  
217.000000	0.000000  
217.500000	0.000000  
218.000000	0.000000  
218.500000	0.000000  
219.000000	0.000000  
219.500000	0.000000  
220.000000	0.000000  
220.500000	0.000000  
221.000000	0.000000  
221.500000	0.000000  
222.000000	0.000000  
222.500000	0.000000  
223.000000	0.000000  
223.500000	0.000000  
224.000000	0.000000  
224.500000	0.000000  
225.000000	0.000000  
225.500000	0.000000  
226.000000	0.000000  
226.500000	0.000000  
227.000000	0.000000  
227.500000	-0.009880 
228.000000	-0.018757 
228.500000	-0.012628 
229.000000	-0.002935 
229.500000	0.010469  
230.000000	0.046040  
230.500000	0.096653  
231.000000	0.155184  
231.500000	0.214509  
232.000000	0.248602  
232.500000	0.257233  
233.000000	0.255708  
233.500000	0.228198  
234.000000	0.169667  
234.500000	0.110342  
235.000000	0.057346  
235.500000	0.017805  
236.000000	-0.001159 
236.500000	-0.013349 
237.000000	-0.020974 
237.500000	-0.036079 
238.000000	-0.048762 
238.500000	-0.079233 
239.000000	-0.044510 
239.500000	0.052727  
240.000000	0.193888  
240.500000	0.360381  
241.000000	0.533612  
241.500000	0.694989  
242.000000	0.780004  
242.500000	0.764853  
243.000000	0.605058  
243.500000	0.431913  
244.000000	0.288012  
244.500000	0.193941  
245.000000	0.168430  
245.500000	0.214981  
246.000000	0.337095  
246.500000	0.487437  
247.000000	0.609761  
247.500000	0.601437  
248.000000	0.527805  
248.500000	0.413114  
249.000000	0.276733  
249.500000	0.147509  
250.000000	0.040531  
250.500000	-0.029109 
251.000000	-0.046324 
251.500000	-0.029579 
252.000000	-0.018509 
252.500000	-0.007189 
253.000000	0.000000  
253.500000	0.000000  
254.000000	0.000000  
254.500000	0.000000  
255.000000	0.000000  
255.500000	0.000000  
256.000000	0.000000  
256.500000	0.000000  
257.000000	0.000000  
257.500000	0.000000  
258.000000	0.000000  
258.500000	0.000000  
259.000000	0.000000  
259.500000	0.000000  
260.000000	0.000000  
260.500000	0.000000  
261.000000	0.000000  
261.500000	0.000000  
262.000000	0.000000  
262.500000	0.000000  
263.000000	0.000000  
263.500000	0.000000  
264.000000	0.000000  
264.500000	0.000000  
265.000000	0.000000  
265.500000	0.000000  
266.000000	0.000000  
266.500000	-0.008869 
267.000000	-0.022735 
267.500000	-0.017637 
268.000000	0.002302  
268.500000	0.032961  
269.000000	0.070213  
269.500000	0.109937  
270.000000	0.148008  
270.500000	0.180302  
271.000000	0.185730  
271.500000	0.155072  
272.000000	0.117820  
272.500000	0.078096  
273.000000	0.040025  
273.500000	0.007730  
274.000000	-0.034727 
274.500000	-0.044469 
275.000000	-0.021111 
275.500000	0.016947  
276.000000	0.049223  
276.500000	0.085237  
277.000000	0.121250  
277.500000	0.138328  
278.000000	0.143446  
278.500000	0.094920  
279.000000	0.070287  
279.500000	0.084788  
280.000000	0.130777  
280.500000	0.203792  
281.000000	0.348290  
281.500000	0.544550  
282.000000	0.738085  
282.500000	0.935383  
283.000000	1.068023  
283.500000	1.188136  
284.000000	1.328724  
284.500000	1.486834  
285.000000	1.633650  
285.500000	1.829260  
286.000000	2.060263  
286.500000	2.249967  
287.000000	2.374383  
287.500000	2.384094  
288.000000	2.387426  
288.500000	2.384508  
289.000000	2.350233  
289.500000	2.304043  
290.000000	2.325563  
290.500000	2.449020  
291.000000	2.538182  
291.500000	2.636074  
292.000000	2.646091  
292.500000	2.696661  
293.000000	2.679507  
293.500000	2.717324  
294.000000	2.699792  
294.500000	2.672393  
295.000000	2.738769  
295.500000	2.789712  
296.000000	2.876199  
296.500000	2.843764  
297.000000	2.915167  
297.500000	2.934993  
298.000000	3.092491  
298.500000	3.241729  
299.000000	3.358039  
299.500000	3.510615  
300.000000	3.656639  
300.500000	3.832433  
301.000000	3.911171  
301.500000	4.039612  
302.000000	4.059464  
302.500000	4.163223  
303.000000	4.276920  
303.500000	4.329951  
304.000000	4.340164  
304.500000	4.385975  
305.000000	4.456477  
305.500000	4.500296  
306.000000	4.597269  
306.500000	4.747460  
307.000000	4.911546  
307.500000	5.051772  
308.000000	5.106867  
308.500000	5.081273  
309.000000	5.021701  
309.500000	4.900532  
310.000000	4.834624  
310.500000	4.813830  
311.000000	4.855918  
311.500000	4.980044  
312.000000	5.212988  
312.500000	5.418721  
313.000000	5.712054  
313.500000	5.941367  
314.000000	6.116810  
314.500000	6.351041  
315.000000	6.582271  
315.500000	6.749946  
316.000000	6.946499  
316.500000	7.232183  
317.000000	7.441772  
317.500000	7.751830  
318.000000	8.039301  
318.500000	8.348453  
319.000000	8.696026  
319.500000	9.020076  
320.000000	9.187098  
320.500000	9.285290  
321.000000	9.439138  
321.500000	9.507189  
322.000000	9.622501  
322.500000	9.810713  
323.000000	10.147325 
323.500000	10.595433 
324.000000	11.072200 
324.500000	11.428160 
325.000000	11.701668 
325.500000	11.939971 
326.000000	12.115720 
326.500000	12.153688 
327.000000	12.142016 
327.500000	12.107502 
328.000000	12.100270 
328.500000	12.113627 
329.000000	12.109753 
329.500000	12.122531 
330.000000	12.119128 
330.500000	12.173359 
331.000000	12.254327 
331.500000	12.415705 
332.000000	12.539877 
332.500000	12.676069 
333.000000	12.790591 
333.500000	12.824268 
334.000000	12.835972 
334.500000	12.767807 
335.000000	12.701829 
335.500000	12.655398 
336.000000	12.705633 
336.500000	12.765803 
337.000000	12.875747 
337.500000	13.008456 
338.000000	13.107916 
338.500000	13.214590 
339.000000	13.274938 
339.500000	13.294289 
340.000000	13.250490 
340.500000	13.203875 
341.000000	13.117268 
341.500000	13.005564 
342.000000	12.894322 
342.500000	12.782338 
343.000000	12.696716 
343.500000	12.646883 
344.000000	12.634291 
344.500000	12.635320 
345.000000	12.647219 
345.500000	12.669973 
346.000000	12.628633 
346.500000	12.550835 
347.000000	12.422793 
347.500000	12.267674 
348.000000	12.070674 
348.500000	11.874862 
349.000000	11.711025 
349.500000	11.585428 
350.000000	11.528070 
350.500000	11.455534 
351.000000	11.394688 
351.500000	11.362943 
352.000000	11.332947 
352.500000	11.245936 
353.000000	11.094283 
353.500000	10.912580 
354.000000	10.693685 
354.500000	10.471779 
355.000000	10.204891 
355.500000	9.917727  
356.000000	9.657837  
356.500000	9.424448  
357.000000	9.217828  
357.500000	8.995194  
358.000000	8.751921  
358.500000	8.472487  
359.000000	8.176475  
359.500000	7.869617  
360.000000	7.539764  
360.500000	7.212748  
361.000000	6.859309  
361.500000	6.496165  
362.000000	6.141462  
362.500000	5.806787  
363.000000	5.478779  
363.500000	5.155750  
364.000000	4.839599  
364.500000	4.546177  
365.000000	4.284252  
365.500000	4.037888  
366.000000	3.766753  
366.500000	3.484739  
367.000000	3.198163  
367.500000	2.932081  
368.000000	2.685294  
368.500000	2.430227  
369.000000	2.184559  
369.500000	1.991003  
370.000000	1.864282  
370.500000	1.739388  
371.000000	1.592895  
371.500000	1.421721  
372.000000	1.259568  
372.500000	1.113403  
373.000000	0.944483  
373.500000	0.753654  
374.000000	0.575932  
374.500000	0.444089  
375.000000	0.350070  
375.500000	0.283458  
376.000000	0.226836  
376.500000	0.190919  
377.000000	0.184288  
377.500000	0.183568  
378.000000	0.168692  
378.500000	0.144724  
379.000000	0.116369  
379.500000	0.092414  
380.000000	0.074281  
380.500000	0.059459  
381.000000	0.043521  
381.500000	0.034790  
382.000000	0.031301  
382.500000	0.028306  
383.000000	0.023135  
383.500000	0.014532  
384.000000	0.005597  
384.500000	0.003657  
385.000000	0.003960  
385.500000	0.002906  
386.000000	0.003922  
386.500000	0.007076  
387.000000	0.012436  
387.500000	0.017790  
388.000000	0.022989  
388.500000	0.020274  
389.000000	0.014960  
389.500000	0.007913  
390.000000	0.000000  

