PE FL                   SPECTRUM    ASCII       PEDS        1.60        
  -1
DMPPME~1
26/09/29
13:16:35.00
26/09/29
13:16:35.00


384.500000
1









LS55
430.00
10.00
10.00
SCAN
1
16
100
100
0
25
0
0
0
1
7
ON
377 335 
1 0 0
#HDR
-1
-1
#GR
NM

0.00002384185791015625
0.0
250.000000
0.500000
270
8
34.311953
1.710930
#DATA
250.000000	18.744000 
250.500000	17.287424 
251.000000	15.933114 
251.500000	14.759345 
252.000000	13.834510 
252.500000	13.081555 
253.000000	12.539329 
253.500000	12.101286 
254.000000	11.730546 
254.500000	11.382967 
255.000000	11.041161 
255.500000	10.684483 
256.000000	10.309287 
256.500000	9.959019  
257.000000	9.610151  
257.500000	9.309613  
258.000000	9.067084  
258.500000	8.896853  
259.000000	8.803482  
259.500000	8.800018  
260.000000	8.884030  
260.500000	9.013827  
261.000000	9.165439  
261.500000	9.323542  
262.000000	9.458415  
262.500000	9.590941  
263.000000	9.741542  
263.500000	9.888755  
264.000000	10.034982 
264.500000	10.211587 
265.000000	10.394232 
265.500000	10.559570 
266.000000	10.711955 
266.500000	10.813376 
267.000000	10.881873 
267.500000	10.970332 
268.000000	11.078354 
268.500000	11.201351 
269.000000	11.367128 
269.500000	11.578027 
270.000000	11.832132 
270.500000	12.129472 
271.000000	12.449731 
271.500000	12.782208 
272.000000	13.154796 
272.500000	13.596269 
273.000000	14.067959 
273.500000	14.575321 
274.000000	15.097767 
274.500000	15.642452 
275.000000	16.193746 
275.500000	16.748225 
276.000000	17.270331 
276.500000	17.755152 
277.000000	18.253345 
277.500000	18.746620 
278.000000	19.243029 
278.500000	19.711762 
279.000000	20.181259 
279.500000	20.664202 
280.000000	21.169842 
280.500000	21.662688 
281.000000	22.128710 
281.500000	22.594015 
282.000000	23.046967 
282.500000	23.496045 
283.000000	23.898703 
283.500000	24.263148 
284.000000	24.583715 
284.500000	24.891351 
285.000000	25.176182 
285.500000	25.418938 
286.000000	25.615969 
286.500000	25.778586 
287.000000	25.942853 
287.500000	26.091444 
288.000000	26.244898 
288.500000	26.359452 
289.000000	26.498221 
289.500000	26.672667 
290.000000	26.860605 
290.500000	27.051711 
291.000000	27.225280 
291.500000	27.406567 
292.000000	27.608120 
292.500000	27.844357 
293.000000	28.014480 
293.500000	28.165772 
294.000000	28.318949 
294.500000	28.464845 
295.000000	28.607370 
295.500000	28.722801 
296.000000	28.838220 
296.500000	29.002318 
297.000000	29.230965 
297.500000	29.445638 
298.000000	29.626610 
298.500000	29.776308 
299.000000	29.896537 
299.500000	29.979256 
300.000000	29.989309 
300.500000	29.936914 
301.000000	29.887871 
301.500000	29.886103 
302.000000	29.912508 
302.500000	29.922598 
303.000000	29.923896 
303.500000	29.934835 
304.000000	29.960780 
304.500000	29.958008 
305.000000	29.913648 
305.500000	29.851658 
306.000000	29.804864 
306.500000	29.797381 
307.000000	29.799248 
307.500000	29.780326 
308.000000	29.761364 
308.500000	29.751037 
309.000000	29.741431 
309.500000	29.714973 
310.000000	29.672211 
310.500000	29.607603 
311.000000	29.546492 
311.500000	29.534118 
312.000000	29.539589 
312.500000	29.548584 
313.000000	29.564905 
313.500000	29.607786 
314.000000	29.686400 
314.500000	29.821940 
315.000000	29.967538 
315.500000	30.109271 
316.000000	30.288973 
316.500000	30.490424 
317.000000	30.691567 
317.500000	30.875385 
318.000000	31.029633 
318.500000	31.150125 
319.000000	31.283260 
319.500000	31.416212 
320.000000	31.531507 
320.500000	31.642982 
321.000000	31.753923 
321.500000	31.861245 
322.000000	31.958685 
322.500000	32.028364 
323.000000	32.074670 
323.500000	32.140332 
324.000000	32.242457 
324.500000	32.381000 
325.000000	32.552196 
325.500000	32.745667 
326.000000	32.953666 
326.500000	33.159952 
327.000000	33.340414 
327.500000	33.480802 
328.000000	33.594540 
328.500000	33.686442 
329.000000	33.752506 
329.500000	33.814192 
330.000000	33.887569 
330.500000	33.975987 
331.000000	34.074492 
331.500000	34.168672 
332.000000	34.242692 
332.500000	34.291243 
333.000000	34.311953 
333.500000	34.291308 
334.000000	34.227243 
334.500000	34.166363 
335.000000	34.120185 
335.500000	34.081517 
336.000000	34.045758 
336.500000	34.010069 
337.000000	33.968497 
337.500000	33.897911 
338.000000	33.797449 
338.500000	33.647028 
339.000000	33.466228 
339.500000	33.271429 
340.000000	33.059349 
340.500000	32.832907 
341.000000	32.601125 
341.500000	32.361980 
342.000000	32.102117 
342.500000	31.848801 
343.000000	31.601455 
343.500000	31.367869 
344.000000	31.164623 
344.500000	30.972832 
345.000000	30.779777 
345.500000	30.589201 
346.000000	30.401072 
346.500000	30.194346 
347.000000	29.952588 
347.500000	29.670137 
348.000000	29.357016 
348.500000	29.027809 
349.000000	28.663853 
349.500000	28.270210 
350.000000	27.857754 
350.500000	27.447072 
351.000000	27.059751 
351.500000	26.697328 
352.000000	26.328748 
352.500000	25.959018 
353.000000	25.598162 
353.500000	25.222447 
354.000000	24.818245 
354.500000	24.367148 
355.000000	23.866276 
355.500000	23.327675 
356.000000	22.767898 
356.500000	22.169875 
357.000000	21.554508 
357.500000	20.954016 
358.000000	20.370582 
358.500000	19.819644 
359.000000	19.298324 
359.500000	18.796899 
360.000000	18.299590 
360.500000	17.798108 
361.000000	17.274850 
361.500000	16.721248 
362.000000	16.149433 
362.500000	15.564128 
363.000000	14.978336 
363.500000	14.403530 
364.000000	13.843593 
364.500000	13.306549 
365.000000	12.785605 
365.500000	12.276434 
366.000000	11.775935 
366.500000	11.282528 
367.000000	10.789146 
367.500000	10.299688 
368.000000	9.819239  
368.500000	9.348159  
369.000000	8.894305  
369.500000	8.454828  
370.000000	8.037242  
370.500000	7.648720  
371.000000	7.283655  
371.500000	6.935125  
372.000000	6.600449  
372.500000	6.281648  
373.000000	5.981395  
373.500000	5.696597  
374.000000	5.419011  
374.500000	5.150176  
375.000000	4.893347  
375.500000	4.647835  
376.000000	4.407085  
376.500000	4.171599  
377.000000	3.939087  
377.500000	3.719384  
378.000000	3.517107  
378.500000	3.329495  
379.000000	3.157428  
379.500000	2.999178  
380.000000	2.853888  
380.500000	2.714133  
381.000000	2.581047  
381.500000	2.448326  
382.000000	2.315731  
382.500000	2.184248  
383.000000	2.055709  
383.500000	1.932260  
384.000000	1.816169  
384.500000	1.710930  

