PE FL                   SPECTRUM    ASCII       PEDS        1.60        
  -1
PMPP_1~1
26/02/26
13:44:56.00
26/02/26
13:48:04.00
ZB
2026-02-26
350.000000
1









LS55
360.00
5.00
5.00
SCAN
1
16
100
100
0
50
0
0
0
1
7
ON
360 350 
1 0 0
#HDR
-1
-1
#GR
NM

0.00002384185791015625
0.0
200.000000
0.500000
301
8
27.004609
-0.047496
#DATA
200.000000	0.000000  
200.500000	0.000000  
201.000000	0.000000  
201.500000	0.000000  
202.000000	0.000000  
202.500000	0.000000  
203.000000	0.000000  
203.500000	0.000000  
204.000000	0.000000  
204.500000	0.000000  
205.000000	0.000000  
205.500000	0.000000  
206.000000	0.000000  
206.500000	0.000000  
207.000000	0.000000  
207.500000	0.000000  
208.000000	0.000000  
208.500000	0.000000  
209.000000	0.000000  
209.500000	0.000000  
210.000000	0.000000  
210.500000	0.000000  
211.000000	0.000000  
211.500000	0.000000  
212.000000	0.000000  
212.500000	0.000000  
213.000000	0.000000  
213.500000	0.000000  
214.000000	0.000000  
214.500000	0.000000  
215.000000	0.000000  
215.500000	0.000000  
216.000000	0.000000  
216.500000	0.000000  
217.000000	0.000000  
217.500000	0.000000  
218.000000	0.000000  
218.500000	0.000000  
219.000000	0.000000  
219.500000	0.000000  
220.000000	0.000000  
220.500000	0.000000  
221.000000	-0.028759 
221.500000	-0.037893 
222.000000	-0.018912 
222.500000	0.001339  
223.000000	0.032486  
223.500000	0.042556  
224.000000	0.087673  
224.500000	0.189077  
225.000000	0.320958  
225.500000	0.466660  
226.000000	0.741707  
226.500000	1.153561  
227.000000	1.680549  
227.500000	2.254608  
228.000000	2.795734  
228.500000	3.337049  
229.000000	3.827699  
229.500000	4.179062  
230.000000	4.293371  
230.500000	4.248296  
231.000000	4.044032  
231.500000	3.757236  
232.000000	3.343978  
232.500000	2.821890  
233.000000	2.334196  
233.500000	1.909027  
234.000000	1.544031  
234.500000	1.215738  
235.000000	0.966914  
235.500000	0.752118  
236.000000	0.630024  
236.500000	0.496020  
237.000000	0.335612  
237.500000	0.210677  
238.000000	0.098870  
238.500000	0.019612  
239.000000	-0.029940 
239.500000	-0.043772 
240.000000	-0.047496 
240.500000	-0.020601 
241.000000	0.000000  
241.500000	0.000000  
242.000000	0.000000  
242.500000	0.000000  
243.000000	0.000000  
243.500000	0.000000  
244.000000	0.000000  
244.500000	0.000000  
245.000000	0.000000  
245.500000	0.000000  
246.000000	0.000000  
246.500000	0.000000  
247.000000	0.000000  
247.500000	0.000000  
248.000000	0.000000  
248.500000	0.000000  
249.000000	0.000000  
249.500000	0.000000  
250.000000	0.000000  
250.500000	0.000000  
251.000000	0.000000  
251.500000	0.000000  
252.000000	0.000000  
252.500000	0.000000  
253.000000	0.000000  
253.500000	0.000000  
254.000000	0.000000  
254.500000	0.000000  
255.000000	0.000000  
255.500000	0.000000  
256.000000	0.000000  
256.500000	0.000000  
257.000000	0.000000  
257.500000	0.000000  
258.000000	0.000000  
258.500000	0.000000  
259.000000	0.000000  
259.500000	0.000000  
260.000000	0.000000  
260.500000	0.000000  
261.000000	0.000000  
261.500000	0.000000  
262.000000	0.000000  
262.500000	0.000000  
263.000000	0.000000  
263.500000	-0.014918 
264.000000	-0.040585 
264.500000	-0.041964 
265.000000	-0.043672 
265.500000	-0.028445 
266.000000	0.071610  
266.500000	0.223130  
267.000000	0.396910  
267.500000	0.598190  
268.000000	0.795118  
268.500000	0.934603  
269.000000	1.015218  
269.500000	0.983198  
270.000000	0.870337  
270.500000	0.777166  
271.000000	0.682116  
271.500000	0.577525  
272.000000	0.581187  
272.500000	0.714037  
273.000000	0.877967  
273.500000	1.147475  
274.000000	1.446028  
274.500000	1.699300  
275.000000	2.035957  
275.500000	2.410318  
276.000000	2.687911  
276.500000	2.916540  
277.000000	3.176488  
277.500000	3.334595  
278.000000	3.553746  
278.500000	3.797060  
279.000000	4.007857  
279.500000	4.294776  
280.000000	4.744020  
280.500000	5.239108  
281.000000	5.758121  
281.500000	6.344495  
282.000000	6.766817  
282.500000	7.228358  
283.000000	7.700866  
283.500000	8.170716  
284.000000	8.687240  
284.500000	9.300266  
285.000000	10.073331 
285.500000	10.959545 
286.000000	11.855778 
286.500000	12.557116 
287.000000	13.203467 
287.500000	13.667918 
288.000000	14.057033 
288.500000	14.375495 
289.000000	14.659442 
289.500000	14.991012 
290.000000	15.511485 
290.500000	16.075718 
291.000000	16.403351 
291.500000	16.740413 
292.000000	16.920870 
292.500000	16.981213 
293.000000	17.006130 
293.500000	16.952782 
294.000000	16.978027 
294.500000	17.203342 
295.000000	17.691471 
295.500000	18.114006 
296.000000	18.707444 
296.500000	19.443360 
297.000000	20.307734 
297.500000	21.130569 
298.000000	21.782673 
298.500000	22.498802 
299.000000	23.041024 
299.500000	23.495553 
300.000000	23.670558 
300.500000	23.648602 
301.000000	23.565511 
301.500000	23.576271 
302.000000	23.640758 
302.500000	23.581987 
303.000000	23.815782 
303.500000	24.148096 
304.000000	24.432456 
304.500000	24.695384 
305.000000	24.793501 
305.500000	24.845641 
306.000000	25.064897 
306.500000	25.250967 
307.000000	25.264547 
307.500000	25.390493 
308.000000	25.678893 
308.500000	25.879777 
309.000000	26.067906 
309.500000	26.100145 
310.000000	26.127197 
310.500000	26.237579 
311.000000	26.358062 
311.500000	26.433904 
312.000000	26.549576 
312.500000	26.735109 
313.000000	26.893706 
313.500000	27.004609 
314.000000	26.891007 
314.500000	26.688930 
315.000000	26.469496 
315.500000	26.191318 
316.000000	25.801294 
316.500000	25.430263 
317.000000	25.072348 
317.500000	24.789973 
318.000000	24.610978 
318.500000	24.406046 
319.000000	24.283015 
319.500000	24.179561 
320.000000	24.052623 
320.500000	23.850276 
321.000000	23.623922 
321.500000	23.300764 
322.000000	22.898769 
322.500000	22.481393 
323.000000	22.020269 
323.500000	21.582081 
324.000000	21.148191 
324.500000	20.707287 
325.000000	20.277461 
325.500000	19.913877 
326.000000	19.521902 
326.500000	19.010052 
327.000000	18.428774 
327.500000	17.769468 
328.000000	17.124728 
328.500000	16.422265 
329.000000	15.623320 
329.500000	14.845238 
330.000000	14.153022 
330.500000	13.523853 
331.000000	12.853674 
331.500000	12.112075 
332.000000	11.312300 
332.500000	10.528997 
333.000000	9.676640  
333.500000	8.726925  
334.000000	7.790929  
334.500000	6.874796  
335.000000	6.028078  
335.500000	5.235879  
336.000000	4.486056  
336.500000	3.773979  
337.000000	3.157711  
337.500000	2.614978  
338.000000	2.116084  
338.500000	1.735701  
339.000000	1.410638  
339.500000	1.159610  
340.000000	0.974056  
340.500000	0.827763  
341.000000	0.714423  
341.500000	0.622327  
342.000000	0.531422  
342.500000	0.442815  
343.000000	0.373914  
343.500000	0.318105  
344.000000	0.263522  
344.500000	0.203180  
345.000000	0.158354  
345.500000	0.131693  
346.000000	0.113867  
346.500000	0.099687  
347.000000	0.076557  
347.500000	0.047359  
348.000000	0.021681  
348.500000	0.005242  
349.000000	-0.006640 
349.500000	-0.008482 
350.000000	0.000000  

