PE FL                   SPECTRUM    ASCII       PEDS        1.60        
  -1
PMPP_1~2
26/02/26
13:53:30.00
26/02/26
13:53:30.00
ZB
2026-02-26
444.500000
1









LS55
310.00
5.00
5.00
SCAN
1
16
100
100
0
50
0
1
0
1
7
ON
450 310 
1 0 0
#HDR
-1
-1
#GR
NM

0.00002384185791015625
0.0
320.000000
0.500000
250
8
27.172480
-0.124901
#DATA
320.000000	0.000000  
320.500000	0.000000  
321.000000	0.012291  
321.500000	0.015176  
322.000000	0.006994  
322.500000	-0.009582 
323.000000	-0.031884 
323.500000	-0.057238 
324.000000	-0.082974 
324.500000	-0.106418 
325.000000	-0.124901 
325.500000	-0.112236 
326.000000	-0.089934 
326.500000	-0.064580 
327.000000	-0.038845 
327.500000	-0.015400 
328.000000	0.003082  
328.500000	0.013931  
329.000000	0.014476  
329.500000	0.002045  
330.000000	0.000000  
330.500000	0.000000  
331.000000	0.000000  
331.500000	0.000000  
332.000000	-0.010010 
332.500000	-0.035665 
333.000000	-0.055457 
333.500000	-0.062579 
334.000000	-0.070939 
334.500000	-0.015782 
335.000000	0.114001  
335.500000	0.340833  
336.000000	0.652490  
336.500000	1.025131  
337.000000	1.419585  
337.500000	1.797892  
338.000000	2.124702  
338.500000	2.282509  
339.000000	2.437481  
339.500000	2.612238  
340.000000	2.884565  
340.500000	3.331534  
341.000000	3.838784  
341.500000	4.516267  
342.000000	5.468580  
342.500000	6.600675  
343.000000	7.690863  
343.500000	8.768272  
344.000000	9.781194  
344.500000	10.778116 
345.000000	11.863066 
345.500000	12.763426 
346.000000	13.600394 
346.500000	14.592651 
347.000000	15.664323 
347.500000	16.716935 
348.000000	17.732664 
348.500000	18.672064 
349.000000	19.591759 
349.500000	20.618866 
350.000000	21.526268 
350.500000	22.283369 
351.000000	23.108796 
351.500000	23.987292 
352.000000	24.773051 
352.500000	25.442981 
353.000000	25.964540 
353.500000	26.342708 
354.000000	26.621625 
354.500000	26.781149 
355.000000	26.838956 
355.500000	26.843752 
356.000000	27.010632 
356.500000	27.092492 
357.000000	27.150215 
357.500000	27.168382 
358.000000	27.172480 
358.500000	27.130431 
359.000000	27.079381 
359.500000	27.115998 
360.000000	27.019881 
360.500000	27.019352 
361.000000	26.881396 
361.500000	26.744923 
362.000000	26.550359 
362.500000	26.364211 
363.000000	26.146860 
363.500000	25.892558 
364.000000	25.789467 
364.500000	25.634665 
365.000000	25.472882 
365.500000	25.131136 
366.000000	24.802810 
366.500000	24.457147 
367.000000	24.150073 
367.500000	23.833585 
368.000000	23.497660 
368.500000	23.259159 
369.000000	23.101777 
369.500000	22.949070 
370.000000	22.637558 
370.500000	22.350546 
371.000000	22.229983 
371.500000	22.159254 
372.000000	22.129942 
372.500000	22.143804 
373.000000	22.089431 
373.500000	21.951210 
374.000000	21.753384 
374.500000	21.338247 
375.000000	20.749519 
375.500000	20.284519 
376.000000	19.822441 
376.500000	19.402438 
377.000000	19.146489 
377.500000	18.945353 
378.000000	18.706704 
378.500000	18.503948 
379.000000	18.324689 
379.500000	18.045711 
380.000000	17.796681 
380.500000	17.416398 
381.000000	16.926515 
381.500000	16.430582 
382.000000	15.899317 
382.500000	15.206912 
383.000000	14.403304 
383.500000	13.628034 
384.000000	12.861064 
384.500000	12.159700 
385.000000	11.418131 
385.500000	10.658479 
386.000000	9.957466  
386.500000	9.369584  
387.000000	8.928023  
387.500000	8.551970  
388.000000	8.308483  
388.500000	8.190310  
389.000000	8.093442  
389.500000	7.896850  
390.000000	7.590059  
390.500000	7.107272  
391.000000	6.470544  
391.500000	5.819773  
392.000000	5.205027  
392.500000	4.670478  
393.000000	4.271154  
393.500000	3.989128  
394.000000	3.786678  
394.500000	3.677816  
395.000000	3.539267  
395.500000	3.354093  
396.000000	3.169012  
396.500000	2.988111  
397.000000	2.850861  
397.500000	2.780473  
398.000000	2.706635  
398.500000	2.560897  
399.000000	2.431741  
399.500000	2.219618  
400.000000	1.934256  
400.500000	1.601852  
401.000000	1.286890  
401.500000	1.040984  
402.000000	0.861980  
402.500000	0.762738  
403.000000	0.708712  
403.500000	0.746837  
404.000000	0.819693  
404.500000	0.892553  
405.000000	0.949689  
405.500000	0.975050  
406.000000	0.962759  
406.500000	0.928052  
407.000000	0.855639  
407.500000	0.725631  
408.000000	0.579687  
408.500000	0.471534  
409.000000	0.375902  
409.500000	0.293157  
410.000000	0.239124  
410.500000	0.210198  
411.000000	0.199219  
411.500000	0.192719  
412.000000	0.166098  
412.500000	0.113478  
413.000000	0.067713  
413.500000	0.026659  
414.000000	0.004886  
414.500000	-0.001039 
415.000000	-0.006567 
415.500000	-0.013145 
416.000000	-0.009966 
416.500000	0.000000  
417.000000	-0.009902 
417.500000	-0.013033 
418.000000	-0.006496 
418.500000	0.007404  
419.000000	0.026367  
419.500000	0.048090  
420.000000	0.055352  
420.500000	0.064744  
421.000000	0.090353  
421.500000	0.106305  
422.000000	0.123607  
422.500000	0.144627  
423.000000	0.167039  
423.500000	0.188517  
424.000000	0.206733  
424.500000	0.190822  
425.000000	0.153573  
425.500000	0.120899  
426.000000	0.078761  
426.500000	0.036949  
427.000000	0.002545  
427.500000	-0.019820 
428.000000	-0.025520 
428.500000	-0.009923 
429.000000	0.000000  
429.500000	0.000000  
430.000000	0.000000  
430.500000	0.000000  
431.000000	0.000000  
431.500000	0.000000  
432.000000	0.000000  
432.500000	0.000000  
433.000000	0.000000  
433.500000	0.000000  
434.000000	0.000000  
434.500000	0.000000  
435.000000	0.000000  
435.500000	0.000000  
436.000000	0.000000  
436.500000	0.000000  
437.000000	0.000000  
437.500000	0.000000  
438.000000	0.000000  
438.500000	0.000000  
439.000000	0.000000  
439.500000	0.000000  
440.000000	0.000000  
440.500000	0.000000  
441.000000	0.000000  
441.500000	0.000000  
442.000000	0.000000  
442.500000	0.000000  
443.000000	0.000000  
443.500000	0.000000  
444.000000	0.000000  
444.500000	0.000000  

