PE FL                   SPECTRUM    ASCII       PEDS        1.60        
  -1
PMPPME~2
26/09/29
13:53:08.00
26/09/29
13:53:08.00


338.500000
1









LS55
360.00
10.00
10.00
SCAN
1
16
100
100
0
25
0
0
0
1
7
ON
360 350 
1 0 0
#HDR
-1
-1
#GR
NM

0.00002384185791015625
0.0
250.000000
0.500000
178
8
75.601988
4.499227
#DATA
250.000000	7.689000  
250.500000	6.514592  
251.000000	5.578750  
251.500000	4.942113  
252.000000	4.580551  
252.500000	4.499227  
253.000000	4.694543  
253.500000	5.067861  
254.000000	5.487439  
254.500000	5.841758  
255.000000	6.151147  
255.500000	6.513288  
256.000000	6.922959  
256.500000	7.314243  
257.000000	7.695115  
257.500000	8.076828  
258.000000	8.431421  
258.500000	8.735970  
259.000000	8.992054  
259.500000	9.219588  
260.000000	9.428722  
260.500000	9.620247  
261.000000	9.781218  
261.500000	9.935851  
262.000000	10.087812 
262.500000	10.240536 
263.000000	10.392636 
263.500000	10.544803 
264.000000	10.740333 
264.500000	11.008432 
265.000000	11.346714 
265.500000	11.778732 
266.000000	12.332013 
266.500000	13.001199 
267.000000	13.777804 
267.500000	14.624130 
268.000000	15.502467 
268.500000	16.421845 
269.000000	17.375706 
269.500000	18.306684 
270.000000	19.201871 
270.500000	20.047081 
271.000000	20.857176 
271.500000	21.665323 
272.000000	22.451058 
272.500000	23.197557 
273.000000	23.968250 
273.500000	24.791482 
274.000000	25.666859 
274.500000	26.584010 
275.000000	27.489341 
275.500000	28.372795 
276.000000	29.253888 
276.500000	30.097582 
277.000000	30.862997 
277.500000	31.603521 
278.000000	32.343857 
278.500000	33.124997 
279.000000	33.974729 
279.500000	34.850712 
280.000000	35.746102 
280.500000	36.708409 
281.000000	37.714211 
281.500000	38.715009 
282.000000	39.720422 
282.500000	40.708932 
283.000000	41.701930 
283.500000	42.697451 
284.000000	43.646815 
284.500000	44.523128 
285.000000	45.345162 
285.500000	46.100080 
286.000000	46.842877 
286.500000	47.566832 
287.000000	48.263914 
287.500000	48.966422 
288.000000	49.710992 
288.500000	50.500477 
289.000000	51.308411 
289.500000	52.104408 
290.000000	52.886920 
290.500000	53.713335 
291.000000	54.550219 
291.500000	55.365728 
292.000000	56.130300 
292.500000	56.840867 
293.000000	57.525365 
293.500000	58.192835 
294.000000	58.803043 
294.500000	59.357949 
295.000000	59.937001 
295.500000	60.568867 
296.000000	61.246337 
296.500000	61.945502 
297.000000	62.674422 
297.500000	63.459336 
298.000000	64.297802 
298.500000	65.133077 
299.000000	65.947123 
299.500000	66.687046 
300.000000	67.383995 
300.500000	68.017754 
301.000000	68.582009 
301.500000	69.068625 
302.000000	69.534528 
302.500000	70.005119 
303.000000	70.485169 
303.500000	71.007364 
304.000000	71.531589 
304.500000	72.087496 
305.000000	72.628254 
305.500000	73.133350 
306.000000	73.564617 
306.500000	73.956661 
307.000000	74.307173 
307.500000	74.583016 
308.000000	74.865588 
308.500000	75.104476 
309.000000	75.313690 
309.500000	75.465796 
310.000000	75.571761 
310.500000	75.601988 
311.000000	75.583184 
311.500000	75.518690 
312.000000	75.401189 
312.500000	75.312327 
313.000000	75.249914 
313.500000	75.220082 
314.000000	75.201128 
314.500000	75.162312 
315.000000	75.062375 
315.500000	74.869876 
316.000000	74.535605 
316.500000	74.040777 
317.000000	73.430942 
317.500000	72.709881 
318.000000	71.906924 
318.500000	71.040336 
319.000000	70.117609 
319.500000	69.127257 
320.000000	68.068450 
320.500000	66.953858 
321.000000	65.783471 
321.500000	64.533567 
322.000000	63.218557 
322.500000	61.870407 
323.000000	60.499990 
323.500000	59.097552 
324.000000	57.628798 
324.500000	56.074225 
325.000000	54.489542 
325.500000	52.873660 
326.000000	51.191084 
326.500000	49.442482 
327.000000	47.649705 
327.500000	45.840636 
328.000000	44.025030 
328.500000	42.171696 
329.000000	40.251807 
329.500000	38.312387 
330.000000	36.387271 
330.500000	34.489305 
331.000000	32.625373 
331.500000	30.802416 
332.000000	29.062374 
332.500000	27.426743 
333.000000	25.886037 
333.500000	24.403347 
334.000000	22.956160 
334.500000	21.527528 
335.000000	20.128947 
335.500000	18.760503 
336.000000	17.389874 
336.500000	16.028162 
337.000000	14.701944 
337.500000	13.450822 
338.000000	12.288482 
338.500000	11.231678 

