PE FL                   SPECTRUM    ASCII       PEDS        1.60        
  -1
PMPPME~1
26/09/29
14:00:21.00
26/09/29
14:00:21.00


445.500000
1









LS55
310.00
10.00
10.00
SCAN
1
16
100
100
0
25
0
1
0
1
7
ON
360 344 
1 0 0
#HDR
-1
-1
#GR
NM

0.00002384185791015625
0.0
320.000000
0.500000
252
8
76.592493
1.533630
#DATA
320.000000	3.926000  
320.500000	3.265733  
321.000000	2.672287  
321.500000	2.202749  
322.000000	1.845385  
322.500000	1.630930  
323.000000	1.533630  
323.500000	1.550693  
324.000000	1.621578  
324.500000	1.721500  
325.000000	1.855715  
325.500000	2.027450  
326.000000	2.260353  
326.500000	2.535989  
327.000000	2.863014  
327.500000	3.225706  
328.000000	3.611381  
328.500000	3.972735  
329.000000	4.287334  
329.500000	4.551465  
330.000000	4.777371  
330.500000	4.996824  
331.000000	5.248862  
331.500000	5.585645  
332.000000	6.052760  
332.500000	6.673472  
333.000000	7.437560  
333.500000	8.311207  
334.000000	9.275938  
334.500000	10.302849 
335.000000	11.353586 
335.500000	12.409920 
336.000000	13.478221 
336.500000	14.571019 
337.000000	15.713973 
337.500000	16.929575 
338.000000	18.201500 
338.500000	19.553751 
339.000000	21.006049 
339.500000	22.552446 
340.000000	24.162057 
340.500000	25.817526 
341.000000	27.514389 
341.500000	29.250932 
342.000000	31.039778 
342.500000	32.820639 
343.000000	34.593282 
343.500000	36.405665 
344.000000	38.261036 
344.500000	40.158465 
345.000000	42.077722 
345.500000	43.990630 
346.000000	45.884667 
346.500000	47.779004 
347.000000	49.626369 
347.500000	51.397325 
348.000000	53.104423 
348.500000	54.729190 
349.000000	56.308923 
349.500000	57.874213 
350.000000	59.423473 
350.500000	60.942411 
351.000000	62.446162 
351.500000	63.902116 
352.000000	65.306970 
352.500000	66.655089 
353.000000	67.888108 
353.500000	69.007515 
354.000000	70.031944 
354.500000	70.964285 
355.000000	71.797632 
355.500000	72.557644 
356.000000	73.243151 
356.500000	73.840188 
357.000000	74.400507 
357.500000	74.911873 
358.000000	75.343358 
358.500000	75.705781 
359.000000	76.008723 
359.500000	76.233051 
360.000000	76.411876 
360.500000	76.554449 
361.000000	76.592493 
361.500000	76.579493 
362.000000	76.525353 
362.500000	76.407698 
363.000000	76.258086 
363.500000	76.087247 
364.000000	75.861718 
364.500000	75.608404 
365.000000	75.350711 
365.500000	75.042277 
366.000000	74.713644 
366.500000	74.341175 
367.000000	73.904092 
367.500000	73.374566 
368.000000	72.822116 
368.500000	72.239568 
369.000000	71.647760 
369.500000	71.068982 
370.000000	70.514789 
370.500000	70.001666 
371.000000	69.486782 
371.500000	68.988833 
372.000000	68.427983 
372.500000	67.833982 
373.000000	67.196119 
373.500000	66.525045 
374.000000	65.843596 
374.500000	65.154787 
375.000000	64.468339 
375.500000	63.766689 
376.000000	63.101846 
376.500000	62.411345 
377.000000	61.704201 
377.500000	60.963284 
378.000000	60.162484 
378.500000	59.314564 
379.000000	58.456508 
379.500000	57.581641 
380.000000	56.685808 
380.500000	55.826550 
381.000000	54.997637 
381.500000	54.201797 
382.000000	53.434176 
382.500000	52.669898 
383.000000	51.884423 
383.500000	51.100375 
384.000000	50.291031 
384.500000	49.425978 
385.000000	48.546024 
385.500000	47.636485 
386.000000	46.706420 
386.500000	45.805120 
387.000000	44.941387 
387.500000	44.096304 
388.000000	43.300549 
388.500000	42.545139 
389.000000	41.802978 
389.500000	41.085553 
390.000000	40.347334 
390.500000	39.554092 
391.000000	38.719763 
391.500000	37.828059 
392.000000	36.897053 
392.500000	35.953196 
393.000000	35.001966 
393.500000	34.105688 
394.000000	33.270581 
394.500000	32.463496 
395.000000	31.679196 
395.500000	30.947430 
396.000000	30.227528 
396.500000	29.550309 
397.000000	28.904835 
397.500000	28.236163 
398.000000	27.601897 
398.500000	27.003228 
399.000000	26.401181 
399.500000	25.794447 
400.000000	25.197134 
400.500000	24.563771 
401.000000	23.928684 
401.500000	23.298872 
402.000000	22.636340 
402.500000	21.992438 
403.000000	21.396453 
403.500000	20.860431 
404.000000	20.376901 
404.500000	19.961536 
405.000000	19.583413 
405.500000	19.262343 
406.000000	18.977480 
406.500000	18.699109 
407.000000	18.418905 
407.500000	18.119574 
408.000000	17.830183 
408.500000	17.530848 
409.000000	17.223042 
409.500000	16.902611 
410.000000	16.589520 
410.500000	16.269041 
411.000000	15.939054 
411.500000	15.607513 
412.000000	15.255098 
412.500000	14.915324 
413.000000	14.581813 
413.500000	14.242597 
414.000000	13.893735 
414.500000	13.566333 
415.000000	13.245440 
415.500000	12.919881 
416.000000	12.600146 
416.500000	12.280874 
417.000000	11.987691 
417.500000	11.730379 
418.000000	11.469902 
418.500000	11.201903 
419.000000	10.953391 
419.500000	10.719970 
420.000000	10.488991 
420.500000	10.249503 
421.000000	9.994183  
421.500000	9.758161  
422.000000	9.554909  
422.500000	9.359765  
423.000000	9.154988  
423.500000	8.951090  
424.000000	8.744212  
424.500000	8.527409  
425.000000	8.299115  
425.500000	8.042817  
426.000000	7.788021  
426.500000	7.550575  
427.000000	7.332100  
427.500000	7.131091  
428.000000	6.945835  
428.500000	6.774831  
429.000000	6.609382  
429.500000	6.454930  
430.000000	6.303572  
430.500000	6.167241  
431.000000	6.045848  
431.500000	5.941100  
432.000000	5.861731  
432.500000	5.806177  
433.000000	5.768425  
433.500000	5.730360  
434.000000	5.688118  
434.500000	5.638057  
435.000000	5.577545  
435.500000	5.506234  
436.000000	5.430589  
436.500000	5.355919  
437.000000	5.285374  
437.500000	5.228334  
438.000000	5.181278  
438.500000	5.147949  
439.000000	5.128380  
439.500000	5.119260  
440.000000	5.114718  
440.500000	5.120210  
441.000000	5.126193  
441.500000	5.128038  
442.000000	5.123341  
442.500000	5.109466  
443.000000	5.092716  
443.500000	5.070882  
444.000000	5.041773  
444.500000	5.011192  
445.000000	4.983646  
445.500000	4.960013  

