PE FL                   SPECTRUM    ASCII       PEDS        1.60        
  -1
TMPPME~3
26/09/29
12:40:48.00
26/09/29
12:40:48.00


414.500000
1









LS55
435.00
10.00
10.00
SCAN
1
16
100
100
0
25
0
0
0
1
7
ON
600 320 
1 0 0
#HDR
-1
-1
#GR
NM

0.00002384185791015625
0.0
250.000000
0.500000
330
8
42.917313
0.883669
#DATA
250.000000	9.291000  
250.500000	9.609301  
251.000000	9.841211  
251.500000	10.006942 
252.000000	10.035399 
252.500000	9.944986  
253.000000	9.732931  
253.500000	9.440706  
254.000000	9.063262  
254.500000	8.705584  
255.000000	8.364718  
255.500000	8.057545  
256.000000	7.821739  
256.500000	7.619031  
257.000000	7.465132  
257.500000	7.357935  
258.000000	7.315102  
258.500000	7.252742  
259.000000	7.194277  
259.500000	7.140822  
260.000000	7.100331  
260.500000	7.122367  
261.000000	7.163824  
261.500000	7.224820  
262.000000	7.317346  
262.500000	7.475573  
263.000000	7.641109  
263.500000	7.811562  
264.000000	7.993083  
264.500000	8.174372  
265.000000	8.383074  
265.500000	8.589200  
266.000000	8.786448  
266.500000	8.972597  
267.000000	9.172939  
267.500000	9.339794  
268.000000	9.481090  
268.500000	9.606351  
269.000000	9.705098  
269.500000	9.792228  
270.000000	9.867443  
270.500000	9.938543  
271.000000	10.013629 
271.500000	10.088025 
272.000000	10.150520 
272.500000	10.207014 
273.000000	10.265060 
273.500000	10.329623 
274.000000	10.397397 
274.500000	10.459739 
275.000000	10.544293 
275.500000	10.668596 
276.000000	10.836572 
276.500000	11.053180 
277.000000	11.325651 
277.500000	11.652222 
278.000000	12.052951 
278.500000	12.524942 
279.000000	13.036730 
279.500000	13.578315 
280.000000	14.136412 
280.500000	14.712822 
281.000000	15.280729 
281.500000	15.845099 
282.000000	16.382929 
282.500000	16.892203 
283.000000	17.372677 
283.500000	17.819397 
284.000000	18.211983 
284.500000	18.556379 
285.000000	18.903427 
285.500000	19.251495 
286.000000	19.628005 
286.500000	20.041076 
287.000000	20.479440 
287.500000	20.927001 
288.000000	21.410496 
288.500000	21.881316 
289.000000	22.331316 
289.500000	22.757886 
290.000000	23.143409 
290.500000	23.493399 
291.000000	23.811240 
291.500000	24.095444 
292.000000	24.355754 
292.500000	24.628589 
293.000000	24.885711 
293.500000	25.160353 
294.000000	25.473317 
294.500000	25.815577 
295.000000	26.213076 
295.500000	26.657861 
296.000000	27.103129 
296.500000	27.564229 
297.000000	28.042235 
297.500000	28.496344 
298.000000	28.952140 
298.500000	29.395210 
299.000000	29.837725 
299.500000	30.299847 
300.000000	30.787337 
300.500000	31.240705 
301.000000	31.685491 
301.500000	32.136840 
302.000000	32.550083 
302.500000	32.942409 
303.000000	33.287101 
303.500000	33.622199 
304.000000	33.964912 
304.500000	34.334172 
305.000000	34.693669 
305.500000	35.078328 
306.000000	35.511015 
306.500000	35.952898 
307.000000	36.403644 
307.500000	36.825120 
308.000000	37.260490 
308.500000	37.713938 
309.000000	38.163952 
309.500000	38.555423 
310.000000	38.915564 
310.500000	39.273779 
311.000000	39.594637 
311.500000	39.858628 
312.000000	40.083526 
312.500000	40.289128 
313.000000	40.497847 
313.500000	40.730064 
314.000000	40.928505 
314.500000	41.115246 
315.000000	41.326593 
315.500000	41.536477 
316.000000	41.722258 
316.500000	41.899562 
317.000000	42.063193 
317.500000	42.201359 
318.000000	42.340090 
318.500000	42.441893 
319.000000	42.500151 
319.500000	42.540671 
320.000000	42.564834 
320.500000	42.565092 
321.000000	42.578244 
321.500000	42.617402 
322.000000	42.667183 
322.500000	42.739286 
323.000000	42.818494 
323.500000	42.882301 
324.000000	42.917313 
324.500000	42.913561 
325.000000	42.859884 
325.500000	42.781168 
326.000000	42.686596 
326.500000	42.601586 
327.000000	42.523701 
327.500000	42.455566 
328.000000	42.397002 
328.500000	42.341237 
329.000000	42.292379 
329.500000	42.218943 
330.000000	42.127613 
330.500000	42.002673 
331.000000	41.857156 
331.500000	41.693067 
332.000000	41.512863 
332.500000	41.326170 
333.000000	41.138204 
333.500000	40.977093 
334.000000	40.819194 
334.500000	40.673804 
335.000000	40.509702 
335.500000	40.338161 
336.000000	40.129956 
336.500000	39.882037 
337.000000	39.600559 
337.500000	39.283716 
338.000000	38.961553 
338.500000	38.624290 
339.000000	38.271034 
339.500000	37.905737 
340.000000	37.554269 
340.500000	37.195885 
341.000000	36.827380 
341.500000	36.449601 
342.000000	36.064491 
342.500000	35.683309 
343.000000	35.292397 
343.500000	34.885153 
344.000000	34.454376 
344.500000	34.024064 
345.000000	33.602487 
345.500000	33.205639 
346.000000	32.819599 
346.500000	32.460927 
347.000000	32.123187 
347.500000	31.782941 
348.000000	31.422974 
348.500000	31.034104 
349.000000	30.618606 
349.500000	30.173028 
350.000000	29.713562 
350.500000	29.240412 
351.000000	28.780330 
351.500000	28.335015 
352.000000	27.889922 
352.500000	27.440395 
353.000000	26.979368 
353.500000	26.516154 
354.000000	26.028659 
354.500000	25.514831 
355.000000	24.969968 
355.500000	24.413048 
356.000000	23.850329 
356.500000	23.284094 
357.000000	22.720019 
357.500000	22.146140 
358.000000	21.577071 
358.500000	21.014775 
359.000000	20.451618 
359.500000	19.883390 
360.000000	19.309990 
360.500000	18.730047 
361.000000	18.156029 
361.500000	17.592092 
362.000000	17.033913 
362.500000	16.479333 
363.000000	15.938655 
363.500000	15.416210 
364.000000	14.901285 
364.500000	14.387270 
365.000000	13.867883 
365.500000	13.354894 
366.000000	12.849696 
366.500000	12.351256 
367.000000	11.853684 
367.500000	11.361606 
368.000000	10.886575 
368.500000	10.429849 
369.000000	9.991931  
369.500000	9.567298  
370.000000	9.159077  
370.500000	8.763801  
371.000000	8.377781  
371.500000	7.999642  
372.000000	7.625539  
372.500000	7.253263  
373.000000	6.888832  
373.500000	6.542587  
374.000000	6.215160  
374.500000	5.903062  
375.000000	5.612329  
375.500000	5.347041  
376.000000	5.102148  
376.500000	4.876817  
377.000000	4.657475  
377.500000	4.442196  
378.000000	4.232675  
378.500000	4.030839  
379.000000	3.832118  
379.500000	3.639323  
380.000000	3.458139  
380.500000	3.284404  
381.000000	3.128799  
381.500000	2.984939  
382.000000	2.845883  
382.500000	2.711602  
383.000000	2.583809  
383.500000	2.460039  
384.000000	2.339311  
384.500000	2.220804  
385.000000	2.097069  
385.500000	1.977466  
386.000000	1.864728  
386.500000	1.758694  
387.000000	1.660391  
387.500000	1.569956  
388.000000	1.487496  
388.500000	1.417063  
389.000000	1.355993  
389.500000	1.300070  
390.000000	1.248972  
390.500000	1.200750  
391.000000	1.156980  
391.500000	1.120614  
392.000000	1.088796  
392.500000	1.060113  
393.000000	1.038000  
393.500000	1.020822  
394.000000	1.008105  
394.500000	0.997493  
395.000000	0.983580  
395.500000	0.967246  
396.000000	0.952769  
396.500000	0.937736  
397.000000	0.922468  
397.500000	0.908892  
398.000000	0.898055  
398.500000	0.890102  
399.000000	0.885589  
399.500000	0.883940  
400.000000	0.883669  
400.500000	0.885974  
401.000000	0.888772  
401.500000	0.890839  
402.000000	0.890636  
402.500000	0.891050  
403.000000	0.891640  
403.500000	0.891003  
404.000000	0.889801  
404.500000	0.889871  
405.000000	0.894522  
405.500000	0.904807  
406.000000	0.920325  
406.500000	0.937293  
407.000000	0.957687  
407.500000	0.982852  
408.000000	1.008089  
408.500000	1.032624  
409.000000	1.056052  
409.500000	1.080042  
410.000000	1.106479  
410.500000	1.136424  
411.000000	1.167760  
411.500000	1.199474  
412.000000	1.234001  
412.500000	1.269314  
413.000000	1.307393  
413.500000	1.347493  
414.000000	1.388960  
414.500000	1.432568  

