PE FL                   SPECTRUM    ASCII       PEDS        1.60        
  -1
TM0BBF~1
26/02/26
14:12:08.00
26/02/26
14:12:08.00
ZB
2026-02-26
524.500000
1









LS55
320.00
5.00
5.00
SCAN
1
16
100
100
0
50
0
1
0
1
7
ON
500 320 
1 0 0
#HDR
-1
-1
#GR
NM

0.00002384185791015625
0.0
330.000000
0.500000
390
8
17.683228
-0.009705
#DATA
330.000000	0.000000  
330.500000	0.000000  
331.000000	0.000000  
331.500000	0.000000  
332.000000	0.000000  
332.500000	0.000000  
333.000000	0.000000  
333.500000	0.000000  
334.000000	0.000000  
334.500000	0.000000  
335.000000	0.000000  
335.500000	0.000000  
336.000000	0.000000  
336.500000	0.000000  
337.000000	0.000000  
337.500000	0.000000  
338.000000	0.000000  
338.500000	0.000000  
339.000000	0.000000  
339.500000	0.000000  
340.000000	0.000000  
340.500000	0.000000  
341.000000	0.000000  
341.500000	0.000000  
342.000000	0.000000  
342.500000	0.000000  
343.000000	0.000000  
343.500000	0.000000  
344.000000	0.000000  
344.500000	0.000000  
345.000000	0.000000  
345.500000	0.000000  
346.000000	0.000000  
346.500000	0.000000  
347.000000	0.000000  
347.500000	0.000000  
348.000000	0.000000  
348.500000	0.000000  
349.000000	0.000000  
349.500000	0.000000  
350.000000	0.000000  
350.500000	0.000000  
351.000000	0.000000  
351.500000	0.000000  
352.000000	0.000000  
352.500000	0.000000  
353.000000	0.000000  
353.500000	0.000000  
354.000000	0.000000  
354.500000	0.000000  
355.000000	0.000000  
355.500000	0.000000  
356.000000	0.000000  
356.500000	0.000000  
357.000000	0.000000  
357.500000	0.000000  
358.000000	0.000000  
358.500000	0.000000  
359.000000	0.000000  
359.500000	0.000000  
360.000000	0.000000  
360.500000	0.000000  
361.000000	0.000000  
361.500000	0.000000  
362.000000	0.000000  
362.500000	0.000000  
363.000000	0.000000  
363.500000	0.000000  
364.000000	0.000000  
364.500000	0.000000  
365.000000	0.000000  
365.500000	0.000000  
366.000000	0.000000  
366.500000	0.000000  
367.000000	0.000000  
367.500000	0.000000  
368.000000	0.000000  
368.500000	0.000000  
369.000000	0.000000  
369.500000	0.000000  
370.000000	0.000000  
370.500000	0.000000  
371.000000	0.000000  
371.500000	0.000000  
372.000000	0.000000  
372.500000	0.000000  
373.000000	0.000000  
373.500000	0.000000  
374.000000	0.000000  
374.500000	0.000000  
375.000000	0.000000  
375.500000	0.000000  
376.000000	0.000000  
376.500000	0.000000  
377.000000	0.000000  
377.500000	0.000000  
378.000000	0.000000  
378.500000	0.000000  
379.000000	0.000000  
379.500000	0.000000  
380.000000	0.000000  
380.500000	0.000000  
381.000000	0.000000  
381.500000	0.000000  
382.000000	0.000000  
382.500000	0.000000  
383.000000	0.000000  
383.500000	0.000000  
384.000000	-0.009084 
384.500000	-0.009705 
385.000000	-0.003554 
385.500000	0.007673  
386.000000	0.022287  
386.500000	0.038594  
387.000000	0.054901  
387.500000	0.062260  
388.000000	0.071185  
388.500000	0.057511  
389.000000	0.043445  
389.500000	0.043486  
390.000000	0.050800  
390.500000	0.074329  
391.000000	0.106698  
391.500000	0.145520  
392.000000	0.168086  
392.500000	0.190827  
393.000000	0.207304  
393.500000	0.234621  
394.000000	0.285546  
394.500000	0.352335  
395.000000	0.457232  
395.500000	0.594143  
396.000000	0.751486  
396.500000	0.891432  
397.000000	0.994446  
397.500000	1.047616  
398.000000	1.054537  
398.500000	1.073130  
399.000000	1.105106  
399.500000	1.139105  
400.000000	1.222853  
400.500000	1.376092  
401.000000	1.600616  
401.500000	1.849388  
402.000000	2.066493  
402.500000	2.207073  
403.000000	2.442161  
403.500000	2.672132  
404.000000	2.852513  
404.500000	3.031780  
405.000000	3.233710  
405.500000	3.454904  
406.000000	3.752713  
406.500000	4.091280  
407.000000	4.385704  
407.500000	4.860364  
408.000000	5.412710  
408.500000	6.009039  
409.000000	6.625187  
409.500000	7.233481  
410.000000	7.683953  
410.500000	8.013938  
411.000000	8.246163  
411.500000	8.330025  
412.000000	8.475155  
412.500000	8.658950  
413.000000	8.948081  
413.500000	9.354544  
414.000000	9.904659  
414.500000	10.461047 
415.000000	10.964963 
415.500000	11.374504 
416.000000	11.681752 
416.500000	11.922704 
417.000000	12.107030 
417.500000	12.255644 
418.000000	12.308007 
418.500000	12.365250 
419.000000	12.437979 
419.500000	12.424122 
420.000000	12.350052 
420.500000	12.264731 
421.000000	12.305314 
421.500000	12.551639 
422.000000	12.993428 
422.500000	13.491836 
423.000000	14.133572 
423.500000	14.877079 
424.000000	15.539972 
424.500000	16.076875 
425.000000	16.390063 
425.500000	16.541536 
426.000000	16.543206 
426.500000	16.436816 
427.000000	16.178374 
427.500000	15.972467 
428.000000	15.903245 
428.500000	15.895895 
429.000000	15.981552 
429.500000	16.114140 
430.000000	16.370704 
430.500000	16.672743 
431.000000	16.983427 
431.500000	17.209825 
432.000000	17.342218 
432.500000	17.368285 
433.000000	17.293011 
433.500000	17.155621 
434.000000	16.946222 
434.500000	16.788890 
435.000000	16.704538 
435.500000	16.757086 
436.000000	16.923272 
436.500000	17.095947 
437.000000	17.265011 
437.500000	17.425608 
438.000000	17.594968 
438.500000	17.683228 
439.000000	17.593132 
439.500000	17.474397 
440.000000	17.467080 
440.500000	17.477936 
441.000000	17.429206 
441.500000	17.326780 
442.000000	17.168494 
442.500000	17.035626 
443.000000	16.953371 
443.500000	16.761528 
444.000000	16.496424 
444.500000	16.406896 
445.000000	16.426446 
445.500000	16.468839 
446.000000	16.557681 
446.500000	16.701852 
447.000000	16.844157 
447.500000	17.035703 
448.000000	17.184245 
448.500000	17.156894 
449.000000	17.155134 
449.500000	17.159300 
450.000000	17.112251 
450.500000	17.054128 
451.000000	17.055145 
451.500000	17.022430 
452.000000	16.959463 
452.500000	16.938108 
453.000000	16.835078 
453.500000	16.698354 
454.000000	16.554077 
454.500000	16.470956 
455.000000	16.451309 
455.500000	16.608018 
456.000000	16.799980 
456.500000	16.992883 
457.000000	17.068818 
457.500000	17.118414 
458.000000	17.143144 
458.500000	17.032743 
459.000000	16.842107 
459.500000	16.602404 
460.000000	16.514676 
460.500000	16.411402 
461.000000	16.303536 
461.500000	16.120713 
462.000000	15.973494 
462.500000	15.896336 
463.000000	15.771591 
463.500000	15.641217 
464.000000	15.410539 
464.500000	15.290856 
465.000000	15.178761 
465.500000	15.101057 
466.000000	14.995740 
466.500000	14.845764 
467.000000	14.740514 
467.500000	14.702516 
468.000000	14.752086 
468.500000	14.726736 
469.000000	14.671162 
469.500000	14.559698 
470.000000	14.385273 
470.500000	14.163880 
471.000000	13.818834 
471.500000	13.389394 
472.000000	12.985930 
472.500000	12.701564 
473.000000	12.436881 
473.500000	12.150067 
474.000000	11.883764 
474.500000	11.702964 
475.000000	11.585057 
475.500000	11.395163 
476.000000	11.166606 
476.500000	11.034071 
477.000000	10.936634 
477.500000	10.799484 
478.000000	10.683933 
478.500000	10.623899 
479.000000	10.558240 
479.500000	10.404099 
480.000000	10.127182 
480.500000	9.797816  
481.000000	9.566554  
481.500000	9.358713  
482.000000	9.069861  
482.500000	8.806284  
483.000000	8.639007  
483.500000	8.507221  
484.000000	8.337201  
484.500000	8.107892  
485.000000	7.908879  
485.500000	7.814338  
486.000000	7.744409  
486.500000	7.589724  
487.000000	7.389553  
487.500000	7.217430  
488.000000	7.052557  
488.500000	6.808962  
489.000000	6.477911  
489.500000	6.152514  
490.000000	5.896105  
490.500000	5.694322  
491.000000	5.531542  
491.500000	5.413527  
492.000000	5.358660  
492.500000	5.304069  
493.000000	5.252478  
493.500000	5.131423  
494.000000	4.952390  
494.500000	4.755265  
495.000000	4.567547  
495.500000	4.341402  
496.000000	4.075553  
496.500000	3.844788  
497.000000	3.682371  
497.500000	3.609214  
498.000000	3.589909  
498.500000	3.531826  
499.000000	3.453453  
499.500000	3.381528  
500.000000	3.252909  
500.500000	3.028830  
501.000000	2.790666  
501.500000	2.570314  
502.000000	2.359603  
502.500000	2.215258  
503.000000	2.100049  
503.500000	2.031291  
504.000000	2.035088  
504.500000	2.069585  
505.000000	2.094574  
505.500000	2.136615  
506.000000	2.188117  
506.500000	2.147390  
507.000000	2.044486  
507.500000	1.876840  
508.000000	1.660918  
508.500000	1.444163  
509.000000	1.244046  
509.500000	1.077523  
510.000000	0.991755  
510.500000	1.001900  
511.000000	1.035958  
511.500000	1.073020  
512.000000	1.109207  
512.500000	1.100601  
513.000000	1.044815  
513.500000	0.951002  
514.000000	0.847337  
514.500000	0.721398  
515.000000	0.615484  
515.500000	0.528348  
516.000000	0.453131  
516.500000	0.390546  
517.000000	0.327569  
517.500000	0.257129  
518.000000	0.181509  
518.500000	0.148212  
519.000000	0.117006  
519.500000	0.106325  
520.000000	0.112503  
520.500000	0.125448  
521.000000	0.148619  
521.500000	0.183636  
522.000000	0.227838  
522.500000	0.248335  
523.000000	0.273820  
523.500000	0.291463  
524.000000	0.308404  
524.500000	0.308568  

