PE FL                   SPECTRUM    ASCII       PEDS        1.60        
  -1
TMPPME~4
26/09/29
12:28:08.00
26/09/29
12:28:08.00


594.500000
1









LS55
320.00
10.00
10.00
SCAN
1
16
100
100
0
25
0
1
0
1
7
ON
550 320 
1 0 0
#HDR
-1
-1
#GR
NM

0.00002384185791015625
0.0
350.000000
0.500000
490
8
44.149658
1.037227
#DATA
350.000000	1.317000  
350.500000	1.214489  
351.000000	1.131606  
351.500000	1.072295  
352.000000	1.044227  
352.500000	1.040957  
353.000000	1.052883  
353.500000	1.065947  
354.000000	1.073826  
354.500000	1.066994  
355.000000	1.054621  
355.500000	1.042558  
356.000000	1.037227  
356.500000	1.039264  
357.000000	1.047702  
357.500000	1.060401  
358.000000	1.068298  
358.500000	1.076362  
359.000000	1.085618  
359.500000	1.092214  
360.000000	1.089910  
360.500000	1.093547  
361.000000	1.094164  
361.500000	1.092213  
362.000000	1.087233  
362.500000	1.075212  
363.000000	1.064571  
363.500000	1.068028  
364.000000	1.074719  
364.500000	1.072528  
365.000000	1.079993  
365.500000	1.088925  
366.000000	1.094286  
366.500000	1.094496  
367.000000	1.088770  
367.500000	1.084451  
368.000000	1.096540  
368.500000	1.121034  
369.000000	1.149635  
369.500000	1.197445  
370.000000	1.259542  
370.500000	1.330452  
371.000000	1.399602  
371.500000	1.460590  
372.000000	1.510452  
372.500000	1.553943  
373.000000	1.586650  
373.500000	1.613320  
374.000000	1.635238  
374.500000	1.659484  
375.000000	1.696682  
375.500000	1.742028  
376.000000	1.794337  
376.500000	1.860227  
377.000000	1.944389  
377.500000	2.037241  
378.000000	2.147711  
378.500000	2.269080  
379.000000	2.401790  
379.500000	2.555056  
380.000000	2.719087  
380.500000	2.882970  
381.000000	3.038610  
381.500000	3.191913  
382.000000	3.340734  
382.500000	3.485397  
383.000000	3.616658  
383.500000	3.733615  
384.000000	3.839684  
384.500000	3.929296  
385.000000	4.004065  
385.500000	4.060375  
386.000000	4.098883  
386.500000	4.157460  
387.000000	4.229281  
387.500000	4.331431  
388.000000	4.475732  
388.500000	4.654231  
389.000000	4.869563  
389.500000	5.138818  
390.000000	5.457486  
390.500000	5.796610  
391.000000	6.176447  
391.500000	6.573877  
392.000000	7.003375  
392.500000	7.463530  
393.000000	7.916829  
393.500000	8.350950  
394.000000	8.780068  
394.500000	9.220455  
395.000000	9.653820  
395.500000	10.097880 
396.000000	10.536945 
396.500000	11.007527 
397.000000	11.521609 
397.500000	12.043427 
398.000000	12.555557 
398.500000	13.041762 
399.000000	13.502543 
399.500000	13.946931 
400.000000	14.374156 
400.500000	14.767286 
401.000000	15.164547 
401.500000	15.611789 
402.000000	16.117396 
402.500000	16.678414 
403.000000	17.276195 
403.500000	17.902561 
404.000000	18.570945 
404.500000	19.268028 
405.000000	19.946238 
405.500000	20.589302 
406.000000	21.221001 
406.500000	21.852212 
407.000000	22.471134 
407.500000	23.087821 
408.000000	23.678607 
408.500000	24.273767 
409.000000	24.893032 
409.500000	25.516584 
410.000000	26.122066 
410.500000	26.710139 
411.000000	27.299540 
411.500000	27.881407 
412.000000	28.491410 
412.500000	29.096391 
413.000000	29.693397 
413.500000	30.296040 
414.000000	30.899112 
414.500000	31.489000 
415.000000	32.030752 
415.500000	32.526448 
416.000000	32.982256 
416.500000	33.452194 
417.000000	33.924513 
417.500000	34.385330 
418.000000	34.845797 
418.500000	35.322530 
419.000000	35.807584 
419.500000	36.261467 
420.000000	36.687039 
420.500000	37.060481 
421.000000	37.417480 
421.500000	37.748383 
422.000000	38.047632 
422.500000	38.313883 
423.000000	38.574721 
423.500000	38.851376 
424.000000	39.131893 
424.500000	39.436797 
425.000000	39.716131 
425.500000	40.008055 
426.000000	40.304099 
426.500000	40.583732 
427.000000	40.812976 
427.500000	40.997825 
428.000000	41.159314 
428.500000	41.306943 
429.000000	41.470625 
429.500000	41.594732 
430.000000	41.709320 
430.500000	41.836461 
431.000000	41.991954 
431.500000	42.137875 
432.000000	42.247673 
432.500000	42.333359 
433.000000	42.433366 
433.500000	42.564092 
434.000000	42.685236 
434.500000	42.794740 
435.000000	42.916138 
435.500000	43.064488 
436.000000	43.245147 
436.500000	43.392718 
437.000000	43.487031 
437.500000	43.541934 
438.000000	43.575305 
438.500000	43.592349 
439.000000	43.583488 
439.500000	43.570245 
440.000000	43.575160 
440.500000	43.647149 
441.000000	43.734461 
441.500000	43.829452 
442.000000	43.903427 
442.500000	43.950494 
443.000000	43.996608 
443.500000	44.020440 
444.000000	44.027869 
444.500000	44.023035 
445.000000	44.046611 
445.500000	44.072383 
446.000000	44.124440 
446.500000	44.149658 
447.000000	44.131714 
447.500000	44.115424 
448.000000	44.082310 
448.500000	44.061732 
449.000000	44.047400 
449.500000	44.053814 
450.000000	44.059863 
450.500000	44.097209 
451.000000	44.113260 
451.500000	44.076939 
452.000000	44.010588 
452.500000	43.883303 
453.000000	43.746315 
453.500000	43.600459 
454.000000	43.471068 
454.500000	43.345222 
455.000000	43.265797 
455.500000	43.219784 
456.000000	43.180904 
456.500000	43.147659 
457.000000	43.069856 
457.500000	42.976925 
458.000000	42.861588 
458.500000	42.721116 
459.000000	42.553160 
459.500000	42.376195 
460.000000	42.220750 
460.500000	42.064837 
461.000000	41.905127 
461.500000	41.773237 
462.000000	41.661451 
462.500000	41.533467 
463.000000	41.350875 
463.500000	41.136324 
464.000000	40.890684 
464.500000	40.640684 
465.000000	40.377139 
465.500000	40.088542 
466.000000	39.847668 
466.500000	39.663271 
467.000000	39.499196 
467.500000	39.310635 
468.000000	39.111220 
468.500000	38.900872 
469.000000	38.686778 
469.500000	38.466658 
470.000000	38.214702 
470.500000	37.971308 
471.000000	37.737812 
471.500000	37.505849 
472.000000	37.241825 
472.500000	36.952159 
473.000000	36.664053 
473.500000	36.357909 
474.000000	36.056168 
474.500000	35.775513 
475.000000	35.518810 
475.500000	35.269138 
476.000000	35.035484 
476.500000	34.798909 
477.000000	34.537275 
477.500000	34.268214 
478.000000	33.986260 
478.500000	33.709479 
479.000000	33.445082 
479.500000	33.190722 
480.000000	32.930546 
480.500000	32.675507 
481.000000	32.430567 
481.500000	32.163194 
482.000000	31.879149 
482.500000	31.590001 
483.000000	31.284621 
483.500000	30.976608 
484.000000	30.663373 
484.500000	30.336559 
485.000000	29.997795 
485.500000	29.670849 
486.000000	29.334307 
486.500000	28.984628 
487.000000	28.639280 
487.500000	28.270074 
488.000000	27.907277 
488.500000	27.566294 
489.000000	27.225780 
489.500000	26.878415 
490.000000	26.530642 
490.500000	26.178631 
491.000000	25.841635 
491.500000	25.529857 
492.000000	25.215944 
492.500000	24.919604 
493.000000	24.657827 
493.500000	24.417093 
494.000000	24.177336 
494.500000	23.927450 
495.000000	23.663809 
495.500000	23.387619 
496.000000	23.106139 
496.500000	22.819584 
497.000000	22.514782 
497.500000	22.219833 
498.000000	21.921890 
498.500000	21.626486 
499.000000	21.305095 
499.500000	20.970772 
500.000000	20.617530 
500.500000	20.262781 
501.000000	19.934890 
501.500000	19.611823 
502.000000	19.305015 
502.500000	18.994786 
503.000000	18.711778 
503.500000	18.437128 
504.000000	18.170626 
504.500000	17.889345 
505.000000	17.604566 
505.500000	17.344155 
506.000000	17.081094 
506.500000	16.822264 
507.000000	16.549317 
507.500000	16.293828 
508.000000	16.047244 
508.500000	15.815780 
509.000000	15.589759 
509.500000	15.366694 
510.000000	15.162987 
510.500000	14.958774 
511.000000	14.744160 
511.500000	14.527622 
512.000000	14.307589 
512.500000	14.093668 
513.000000	13.891946 
513.500000	13.725279 
514.000000	13.572410 
514.500000	13.434386 
515.000000	13.300053 
515.500000	13.154493 
516.000000	12.991903 
516.500000	12.797449 
517.000000	12.574522 
517.500000	12.314221 
518.000000	12.057076 
518.500000	11.804674 
519.000000	11.563322 
519.500000	11.343527 
520.000000	11.152334 
520.500000	10.990515 
521.000000	10.840211 
521.500000	10.710560 
522.000000	10.589023 
522.500000	10.475157 
523.000000	10.356225 
523.500000	10.225655 
524.000000	10.079787 
524.500000	9.927609  
525.000000	9.767985  
525.500000	9.594017  
526.000000	9.418178  
526.500000	9.271299  
527.000000	9.135931  
527.500000	9.005432  
528.000000	8.884902  
528.500000	8.774107  
529.000000	8.668932  
529.500000	8.566384  
530.000000	8.454738  
530.500000	8.328585  
531.000000	8.225348  
531.500000	8.128141  
532.000000	8.018107  
532.500000	7.888991  
533.000000	7.741700  
533.500000	7.580818  
534.000000	7.410139  
534.500000	7.223463  
535.000000	7.021163  
535.500000	6.834175  
536.000000	6.664309  
536.500000	6.509676  
537.000000	6.375261  
537.500000	6.259242  
538.000000	6.156965  
538.500000	6.064605  
539.000000	5.974365  
539.500000	5.879346  
540.000000	5.781615  
540.500000	5.679499  
541.000000	5.572035  
541.500000	5.475602  
542.000000	5.385858  
542.500000	5.304184  
543.000000	5.229640  
543.500000	5.159966  
544.000000	5.101714  
544.500000	5.055602  
545.000000	5.015461  
545.500000	4.973099  
546.000000	4.937587  
546.500000	4.904351  
547.000000	4.871913  
547.500000	4.835409  
548.000000	4.793996  
548.500000	4.743012  
549.000000	4.699179  
549.500000	4.661064  
550.000000	4.630160  
550.500000	4.605833  
551.000000	4.584821  
551.500000	4.561448  
552.000000	4.535128  
552.500000	4.509047  
553.000000	4.472024  
553.500000	4.439859  
554.000000	4.411207  
554.500000	4.384725  
555.000000	4.360862  
555.500000	4.345791  
556.000000	4.334151  
556.500000	4.322761  
557.000000	4.318633  
557.500000	4.315460  
558.000000	4.321131  
558.500000	4.328977  
559.000000	4.336542  
559.500000	4.333839  
560.000000	4.323507  
560.500000	4.302840  
561.000000	4.271461  
561.500000	4.232103  
562.000000	4.192006  
562.500000	4.161364  
563.000000	4.138052  
563.500000	4.127992  
564.000000	4.122944  
564.500000	4.125220  
565.000000	4.127986  
565.500000	4.126615  
566.000000	4.121262  
566.500000	4.114244  
567.000000	4.108026  
567.500000	4.089083  
568.000000	4.056978  
568.500000	4.007827  
569.000000	3.954633  
569.500000	3.899033  
570.000000	3.839770  
570.500000	3.784548  
571.000000	3.741719  
571.500000	3.722302  
572.000000	3.720965  
572.500000	3.725285  
573.000000	3.716586  
573.500000	3.692332  
574.000000	3.664298  
574.500000	3.625273  
575.000000	3.578802  
575.500000	3.520306  
576.000000	3.462422  
576.500000	3.426054  
577.000000	3.405668  
577.500000	3.386759  
578.000000	3.352233  
578.500000	3.314190  
579.000000	3.278595  
579.500000	3.252806  
580.000000	3.218321  
580.500000	3.170407  
581.000000	3.130898  
581.500000	3.102492  
582.000000	3.081816  
582.500000	3.053358  
583.000000	3.011848  
583.500000	2.966720  
584.000000	2.930515  
584.500000	2.892945  
585.000000	2.840026  
585.500000	2.800524  
586.000000	2.770036  
586.500000	2.755663  
587.000000	2.755256  
587.500000	2.752583  
588.000000	2.751443  
588.500000	2.748813  
589.000000	2.734242  
589.500000	2.698090  
590.000000	2.658653  
590.500000	2.606513  
591.000000	2.551970  
591.500000	2.503068  
592.000000	2.460037  
592.500000	2.430001  
593.000000	2.409231  
593.500000	2.392781  
594.000000	2.373811  
594.500000	2.359290  

