PE FL                   SPECTRUM    ASCII       PEDS        1.60        
  -1
TM0BAF~1
26/02/26
14:05:00.00
26/02/26
14:05:00.00
ZB
2026-02-26
414.500000
1









LS55
435.00
5.00
5.00
SCAN
1
16
100
100
0
50
0
0
0
1
7
ON
435 420 
1 0 0
#HDR
-1
-1
#GR
NM

0.00002384185791015625
0.0
200.000000
0.500000
430
8
17.816244
-0.114703
#DATA
200.000000	0.000000  
200.500000	0.000000  
201.000000	0.000000  
201.500000	0.000000  
202.000000	0.000000  
202.500000	0.000000  
203.000000	0.000000  
203.500000	0.000000  
204.000000	0.000000  
204.500000	0.000000  
205.000000	0.000000  
205.500000	0.000000  
206.000000	0.000000  
206.500000	0.000000  
207.000000	0.000000  
207.500000	0.000000  
208.000000	0.000000  
208.500000	0.000000  
209.000000	0.000000  
209.500000	0.000000  
210.000000	0.000000  
210.500000	0.000000  
211.000000	0.000000  
211.500000	0.000000  
212.000000	0.000000  
212.500000	0.000000  
213.000000	0.000000  
213.500000	0.000000  
214.000000	0.000000  
214.500000	0.000000  
215.000000	0.000000  
215.500000	0.000000  
216.000000	0.000000  
216.500000	0.000000  
217.000000	0.000000  
217.500000	0.000000  
218.000000	0.000000  
218.500000	0.000000  
219.000000	0.000000  
219.500000	0.000000  
220.000000	0.000000  
220.500000	0.000000  
221.000000	0.000000  
221.500000	0.000000  
222.000000	0.000000  
222.500000	0.000000  
223.000000	-0.034464 
223.500000	-0.104844 
224.000000	-0.114703 
224.500000	-0.074369 
225.000000	0.031153  
225.500000	0.206714  
226.000000	0.446436  
226.500000	0.804633  
227.000000	1.243262  
227.500000	1.659897  
228.000000	1.981271  
228.500000	2.284353  
229.000000	2.536007  
229.500000	2.707671  
230.000000	2.774101  
230.500000	2.687543  
231.000000	2.532417  
231.500000	2.323071  
232.000000	2.021353  
232.500000	1.594148  
233.000000	1.133376  
233.500000	0.730229  
234.000000	0.415926  
234.500000	0.211380  
235.000000	0.072713  
235.500000	0.035415  
236.000000	0.072133  
236.500000	0.137369  
237.000000	0.189682  
237.500000	0.151691  
238.000000	0.119913  
238.500000	0.090478  
239.000000	0.075892  
239.500000	0.076328  
240.000000	0.091959  
240.500000	0.122957  
241.000000	0.169494  
241.500000	0.220801  
242.000000	0.190096  
242.500000	0.150132  
243.000000	0.105540  
243.500000	0.060947  
244.000000	0.020984  
244.500000	-0.009720 
245.000000	-0.026539 
245.500000	-0.024842 
246.000000	0.000000  
246.500000	0.000000  
247.000000	0.000000  
247.500000	0.000000  
248.000000	0.000000  
248.500000	0.000000  
249.000000	0.000000  
249.500000	0.000000  
250.000000	0.000000  
250.500000	0.000000  
251.000000	0.000000  
251.500000	0.000000  
252.000000	0.000000  
252.500000	0.000000  
253.000000	0.000000  
253.500000	0.000000  
254.000000	0.000000  
254.500000	0.000000  
255.000000	0.000000  
255.500000	0.000000  
256.000000	0.000000  
256.500000	0.000000  
257.000000	0.000000  
257.500000	0.000000  
258.000000	0.000000  
258.500000	0.000000  
259.000000	0.000000  
259.500000	0.000000  
260.000000	0.000000  
260.500000	0.000000  
261.000000	0.000000  
261.500000	0.000000  
262.000000	0.000000  
262.500000	0.000000  
263.000000	0.000000  
263.500000	0.000000  
264.000000	0.000000  
264.500000	0.000000  
265.000000	0.000000  
265.500000	0.000000  
266.000000	0.000000  
266.500000	0.000000  
267.000000	0.000000  
267.500000	0.000000  
268.000000	0.000000  
268.500000	0.000000  
269.000000	0.000000  
269.500000	0.000000  
270.000000	0.000000  
270.500000	0.000000  
271.000000	0.000000  
271.500000	0.000000  
272.000000	0.000000  
272.500000	0.000000  
273.000000	0.000000  
273.500000	0.000000  
274.000000	0.000000  
274.500000	0.000000  
275.000000	0.000000  
275.500000	0.000000  
276.000000	0.000000  
276.500000	-0.015628 
277.000000	-0.020592 
277.500000	-0.010278 
278.000000	0.011677  
278.500000	0.041634  
279.000000	0.075956  
279.500000	0.111004  
280.000000	0.143140  
280.500000	0.168725  
281.000000	0.143934  
281.500000	0.096331  
282.000000	0.051200  
282.500000	0.013093  
283.000000	0.014916  
283.500000	0.064271  
284.000000	0.155305  
284.500000	0.293439  
285.000000	0.457115  
285.500000	0.561844  
286.000000	0.594374  
286.500000	0.601956  
287.000000	0.595547  
287.500000	0.588136  
288.000000	0.594831  
288.500000	0.671277  
289.000000	0.789371  
289.500000	0.999650  
290.000000	1.267346  
290.500000	1.497644  
291.000000	1.731174  
291.500000	1.964035  
292.000000	2.115406  
292.500000	2.247179  
293.000000	2.385008  
293.500000	2.419200  
294.000000	2.396417  
294.500000	2.519071  
295.000000	2.681000  
295.500000	2.890351  
296.000000	3.186538  
296.500000	3.495872  
297.000000	3.925397  
297.500000	4.468348  
298.000000	4.898497  
298.500000	5.082668  
299.000000	5.220303  
299.500000	5.316544  
300.000000	5.422086  
300.500000	5.562573  
301.000000	5.681482  
301.500000	5.927884  
302.000000	6.343100  
302.500000	6.831462  
303.000000	7.220160  
303.500000	7.535582  
304.000000	7.783142  
304.500000	8.026145  
305.000000	8.265381  
305.500000	8.467755  
306.000000	8.671120  
306.500000	8.877811  
307.000000	9.079664  
307.500000	9.321992  
308.000000	9.547792  
308.500000	9.666537  
309.000000	9.790831  
309.500000	9.969409  
310.000000	10.204226 
310.500000	10.554524 
311.000000	10.893380 
311.500000	11.160819 
312.000000	11.545227 
312.500000	11.985284 
313.000000	12.522681 
313.500000	13.162689 
314.000000	13.826766 
314.500000	14.479039 
315.000000	15.193174 
315.500000	15.804674 
316.000000	16.186281 
316.500000	16.494342 
317.000000	16.621455 
317.500000	16.706510 
318.000000	16.847137 
318.500000	16.990309 
319.000000	17.119084 
319.500000	17.323918 
320.000000	17.515928 
320.500000	17.647277 
321.000000	17.808567 
321.500000	17.816244 
322.000000	17.747978 
322.500000	17.700507 
323.000000	17.672128 
323.500000	17.651133 
324.000000	17.635733 
324.500000	17.597639 
325.000000	17.591767 
325.500000	17.650109 
326.000000	17.690612 
326.500000	17.676769 
327.000000	17.612206 
327.500000	17.544406 
328.000000	17.500062 
328.500000	17.472019 
329.000000	17.435248 
329.500000	17.341402 
330.000000	17.303403 
330.500000	17.246068 
331.000000	17.208579 
331.500000	17.141126 
332.000000	17.039401 
332.500000	16.949496 
333.000000	16.903520 
333.500000	16.904748 
334.000000	16.826615 
334.500000	16.746814 
335.000000	16.615941 
335.500000	16.500659 
336.000000	16.398510 
336.500000	16.261334 
337.000000	16.102462 
337.500000	15.981487 
338.000000	15.940107 
338.500000	15.887534 
339.000000	15.819381 
339.500000	15.675870 
340.000000	15.483395 
340.500000	15.298538 
341.000000	15.115429 
341.500000	14.938168 
342.000000	14.764024 
342.500000	14.591411 
343.000000	14.449617 
343.500000	14.310905 
344.000000	14.126149 
344.500000	13.893820 
345.000000	13.628548 
345.500000	13.369479 
346.000000	13.141740 
346.500000	12.956448 
347.000000	12.801076 
347.500000	12.724282 
348.000000	12.718535 
348.500000	12.710748 
349.000000	12.734141 
349.500000	12.754205 
350.000000	12.751257 
350.500000	12.714820 
351.000000	12.654414 
351.500000	12.504522 
352.000000	12.287008 
352.500000	12.013410 
353.000000	11.637214 
353.500000	11.257209 
354.000000	10.910921 
354.500000	10.596461 
355.000000	10.323110 
355.500000	10.153658 
356.000000	10.018605 
356.500000	9.869449  
357.000000	9.692091  
357.500000	9.436066  
358.000000	9.145643  
358.500000	8.863317  
359.000000	8.561709  
359.500000	8.256523  
360.000000	8.062006  
360.500000	7.967734  
361.000000	7.885076  
361.500000	7.751889  
362.000000	7.569499  
362.500000	7.334036  
363.000000	7.050094  
363.500000	6.692762  
364.000000	6.260775  
364.500000	5.830423  
365.000000	5.454687  
365.500000	5.101948  
366.000000	4.767702  
366.500000	4.459907  
367.000000	4.188953  
367.500000	3.929865  
368.000000	3.639430  
368.500000	3.329623  
369.000000	3.028020  
369.500000	2.760655  
370.000000	2.504150  
370.500000	2.271756  
371.000000	2.057175  
371.500000	1.894286  
372.000000	1.756664  
372.500000	1.601481  
373.000000	1.451914  
373.500000	1.314185  
374.000000	1.185403  
374.500000	1.041676  
375.000000	0.911392  
375.500000	0.774529  
376.000000	0.657663  
376.500000	0.558252  
377.000000	0.461085  
377.500000	0.374068  
378.000000	0.298941  
378.500000	0.236793  
379.000000	0.200222  
379.500000	0.193271  
380.000000	0.197557  
380.500000	0.200153  
381.000000	0.197049  
381.500000	0.187047  
382.000000	0.175879  
382.500000	0.166471  
383.000000	0.146516  
383.500000	0.116800  
384.000000	0.091804  
384.500000	0.074973  
385.000000	0.056149  
385.500000	0.038611  
386.000000	0.024497  
386.500000	0.018026  
387.000000	0.019211  
387.500000	0.020459  
388.000000	0.015870  
388.500000	0.012500  
389.000000	0.011429  
389.500000	0.006366  
390.000000	0.001912  
390.500000	-0.001397 
391.000000	-0.003030 
391.500000	-0.002454 
392.000000	0.000000  
392.500000	0.000000  
393.000000	0.000000  
393.500000	0.000000  
394.000000	0.000000  
394.500000	0.000000  
395.000000	0.000000  
395.500000	0.000000  
396.000000	0.000000  
396.500000	0.000000  
397.000000	0.000000  
397.500000	0.000000  
398.000000	0.000000  
398.500000	0.000000  
399.000000	0.000000  
399.500000	0.000000  
400.000000	0.000000  
400.500000	0.000000  
401.000000	0.000000  
401.500000	0.000000  
402.000000	0.000000  
402.500000	0.000000  
403.000000	0.000000  
403.500000	0.000000  
404.000000	0.000000  
404.500000	0.000000  
405.000000	0.000000  
405.500000	0.000000  
406.000000	0.000000  
406.500000	0.000000  
407.000000	0.000000  
407.500000	0.000000  
408.000000	0.000000  
408.500000	0.000000  
409.000000	0.000000  
409.500000	-0.001033 
410.000000	-0.002653 
410.500000	-0.003567 
411.000000	-0.001946 
411.500000	0.002610  
412.000000	0.005828  
412.500000	0.010302  
413.000000	0.019134  
413.500000	0.030446  
414.000000	0.039062  
414.500000	0.045071  

